* Measurement data measured by REW V5.31
* Source: EXCL: Microphone (USB Sound Device        ), MICROPHONE (Master Volume), L, volume: 0.390
* Format: 256k Log Swept Sine, 1 sweep at -4.0 dBFS with no timing reference
* Dated: Jul 22, 2024 11:36:17 PM
* REW Settings:
*  C-weighting compensation: Off
*  Target level: 75.0 dB
* Note: Artti R1 L
* Measurement: L Artti R1
* Smoothing: 1/12 octave
* Frequency Step: 96 ppo
* Start Frequency: 0.36621094 Hz
*
* Freq(Hz) SPL(dB) Phase(degrees)
0.366211 88.588 -62.3374
0.368865 88.593 -62.4026
0.371538 88.600 -62.5002
0.374230 88.608 -62.6227
0.376942 88.618 -62.7635
0.379673 88.628 -62.9179
0.382424 88.639 -63.0829
0.385196 88.650 -63.2564
0.387987 88.662 -63.4373
0.390798 88.673 -63.6251
0.393630 88.684 -63.8195
0.396483 88.696 -64.0202
0.399356 88.708 -64.2273
0.402250 88.720 -64.4407
0.405165 88.731 -64.6604
0.408101 88.743 -64.8865
0.411058 88.756 -65.1189
0.414037 88.768 -65.3577
0.417037 88.780 -65.6029
0.420059 88.792 -65.8545
0.423103 88.805 -66.1125
0.426169 88.817 -66.3769
0.429257 88.830 -66.6478
0.432368 88.842 -66.9251
0.435501 88.855 -67.2088
0.438656 88.868 -67.4990
0.441835 88.881 -67.7956
0.445037 88.894 -68.0986
0.448262 88.907 -68.4079
0.451510 88.920 -68.7236
0.454782 88.934 -69.0457
0.458077 88.947 -69.3740
0.461397 88.961 -69.7086
0.464740 88.974 -70.0495
0.468108 88.988 -70.3965
0.471500 89.002 -70.7496
0.474917 89.016 -71.1088
0.478358 89.030 -71.4740
0.481825 89.044 -71.8451
0.485316 89.058 -72.2221
0.488833 89.073 -72.6048
0.492375 89.087 -72.9932
0.495943 89.102 -73.3873
0.499537 89.116 -73.7869
0.503157 89.131 -74.1918
0.506803 89.146 -74.6021
0.510475 89.161 -75.0176
0.514175 89.176 -75.4381
0.517900 89.191 -75.8636
0.521653 89.207 -76.2940
0.525434 89.222 -76.7290
0.529241 89.237 -77.1686
0.533076 89.253 -77.6126
0.536939 89.269 -78.0608
0.540830 89.285 -78.5132
0.544749 89.301 -78.9696
0.548696 89.317 -79.4297
0.552673 89.333 -79.8935
0.556677 89.349 -80.3608
0.560711 89.366 -80.8313
0.564774 89.382 -81.3050
0.568867 89.399 -81.7816
0.572989 89.416 -82.2610
0.577141 89.433 -82.7430
0.581324 89.450 -83.2273
0.585536 89.467 -83.7139
0.589779 89.484 -84.2025
0.594053 89.502 -84.6929
0.598358 89.519 -85.1850
0.602694 89.537 -85.6785
0.607061 89.555 -86.1733
0.611460 89.573 -86.6691
0.615891 89.591 -87.1659
0.620354 89.609 -87.6633
0.624849 89.627 -88.1612
0.629377 89.646 -88.6594
0.633938 89.664 -89.1578
0.638532 89.683 -89.6561
0.643159 89.702 -90.1541
0.647819 89.721 -90.6518
0.652514 89.740 -91.1488
0.657242 89.759 -91.6451
0.662005 89.779 -92.1405
0.666802 89.798 -92.6348
0.671634 89.818 -93.1278
0.676501 89.838 -93.6195
0.681403 89.858 -94.1096
0.686341 89.878 -94.5980
0.691314 89.898 -95.0846
0.696324 89.919 -95.5694
0.701370 89.939 -96.0522
0.706452 89.959 -96.5331
0.711571 89.979 -97.0124
0.716728 89.999 -97.4903
0.721921 90.018 -97.9674
0.727153 90.036 -98.4449
0.732422 90.052 -98.9241
0.737729 90.067 -99.4067
0.743075 90.081 -99.8944
0.748460 90.093 -100.3885
0.753883 90.104 -100.8901
0.759346 90.114 -101.3996
0.764849 90.124 -101.9175
0.770391 90.134 -102.4438
0.775974 90.144 -102.9785
0.781597 90.153 -103.5216
0.787261 90.162 -104.0729
0.792966 90.171 -104.6322
0.798712 90.180 -105.1994
0.804500 90.189 -105.7742
0.810329 90.197 -106.3565
0.816201 90.205 -106.9459
0.822116 90.213 -107.5422
0.828073 90.220 -108.1452
0.834074 90.227 -108.7545
0.840118 90.234 -109.3700
0.846206 90.241 -109.9912
0.852338 90.247 -110.6180
0.858514 90.252 -111.2499
0.864735 90.258 -111.8866
0.871001 90.263 -112.5278
0.877313 90.267 -113.1731
0.883670 90.271 -113.8221
0.890074 90.274 -114.4746
0.896524 90.277 -115.1300
0.903020 90.279 -115.7881
0.909564 90.281 -116.4483
0.916155 90.282 -117.1104
0.922794 90.282 -117.7739
0.929481 90.282 -118.4383
0.936216 90.281 -119.1033
0.943000 90.279 -119.7684
0.949834 90.277 -120.4332
0.956717 90.273 -121.0973
0.963649 90.269 -121.7602
0.970632 90.264 -122.4215
0.977666 90.258 -123.0807
0.984750 90.251 -123.7375
0.991886 90.243 -124.3913
0.999074 90.234 -125.0417
1.006314 90.223 -125.6884
1.013606 90.212 -126.3307
1.020951 90.199 -126.9684
1.028349 90.186 -127.6010
1.035801 90.171 -128.2280
1.043307 90.154 -128.8492
1.050867 90.136 -129.4641
1.058482 90.117 -130.0726
1.066152 90.097 -130.6747
1.073878 90.075 -131.2706
1.081660 90.051 -131.8611
1.089498 90.027 -132.4474
1.097393 90.001 -133.0318
1.105345 89.975 -133.6168
1.113355 89.947 -134.2053
1.121423 89.920 -134.8000
1.129549 89.892 -135.4029
1.137734 89.863 -136.0156
1.145979 89.834 -136.6391
1.154283 89.804 -137.2741
1.162647 89.774 -137.9213
1.171072 89.743 -138.5810
1.179558 89.712 -139.2536
1.188106 89.679 -139.9393
1.196715 89.645 -140.6383
1.205387 89.610 -141.3507
1.214122 89.573 -142.0767
1.222920 89.535 -142.8164
1.231782 89.495 -143.5697
1.240708 89.454 -144.3365
1.249699 89.410 -145.1169
1.258754 89.363 -145.9105
1.267876 89.315 -146.7171
1.277063 89.263 -147.5363
1.286318 89.209 -148.3678
1.295639 89.151 -149.2108
1.305027 89.090 -150.0648
1.314484 89.026 -150.9288
1.324009 88.958 -151.8020
1.333604 88.885 -152.6832
1.343268 88.809 -153.5712
1.353002 88.727 -154.4645
1.362806 88.641 -155.3615
1.372681 88.549 -156.2604
1.382628 88.453 -157.1592
1.392647 88.350 -158.0557
1.402739 88.241 -158.9477
1.412904 88.125 -159.8330
1.423142 88.003 -160.7095
1.433455 87.873 -161.5756
1.443843 87.734 -162.4309
1.454305 87.586 -163.2760
1.464844 87.427 -164.1136
1.475459 87.255 -164.9479
1.486150 87.071 -165.7840
1.496920 86.872 -166.6270
1.507767 86.658 -167.4810
1.518693 86.430 -168.3497
1.529698 86.187 -169.2357
1.540783 85.931 -170.1414
1.551948 85.661 -171.0687
1.563194 85.380 -172.0195
1.574521 85.088 -172.9956
1.585931 84.786 -173.9988
1.597423 84.476 -175.0307
1.608999 84.158 -176.0933
1.620658 83.835 -177.1884
1.632402 83.507 -178.3180
1.644232 83.177 -179.4841
1.656146 82.846 179.3113
1.668147 82.515 178.0659
1.680235 82.186 176.7777
1.692411 81.862 175.4443
1.704675 81.545 174.0635
1.717028 81.236 172.6327
1.729470 80.937 171.1495
1.742003 80.652 169.6112
1.754626 80.382 168.0146
1.767341 80.131 166.3560
1.780147 79.899 164.6301
1.793047 79.690 162.8292
1.806040 79.506 160.9410
1.819128 79.347 158.9461
1.832310 79.213 156.8139
1.845587 79.105 154.4994
1.858961 79.021 151.9395
1.872432 78.959 149.0499
1.886001 78.919 145.7173
1.899667 78.899 141.7882
1.913433 78.899 137.0509
1.927299 78.917 131.2138
1.941265 78.954 123.8881
1.955332 79.008 114.6083
1.969501 79.080 102.9776
1.983773 79.167 89.0519
1.998148 79.270 73.8099
2.012627 79.388 58.9924
2.027212 79.520 46.0717
2.041902 79.665 35.5528
2.056698 79.822 27.2152
2.071602 79.992 20.5986
2.086614 80.172 15.2657
2.101734 80.362 10.8751
2.116964 80.563 7.1760
2.132304 80.772 3.9880
2.147756 80.991 1.1798
2.163320 81.221 -1.3455
2.178996 81.463 -3.6606
2.194786 81.719 -5.8206
2.210690 81.992 -7.8658
2.226710 82.285 -9.8243
2.242845 82.599 -11.7131
2.259098 82.934 -13.5417
2.275468 83.290 -15.3146
2.291957 83.664 -17.0336
2.308566 84.054 -18.6997
2.325295 84.458 -20.3135
2.342145 84.873 -21.8757
2.359117 85.296 -23.3875
2.376212 85.724 -24.8501
2.393431 86.154 -26.2656
2.410775 86.582 -27.6360
2.428244 87.005 -28.9637
2.445840 87.421 -30.2516
2.463564 87.825 -31.5029
2.481416 88.215 -32.7213
2.499397 88.589 -33.9113
2.517509 88.944 -35.0786
2.535752 89.279 -36.2300
2.554127 89.594 -37.3733
2.572635 89.889 -38.5169
2.591277 90.165 -39.6684
2.610055 90.424 -40.8325
2.628968 90.668 -42.0109
2.648019 90.897 -43.2024
2.667208 91.114 -44.4040
2.686535 91.318 -45.6115
2.706003 91.512 -46.8201
2.725612 91.696 -48.0253
2.745363 91.871 -49.2225
2.765257 92.037 -50.4073
2.785295 92.197 -51.5760
2.805478 92.351 -52.7255
2.825808 92.501 -53.8532
2.846285 92.646 -54.9576
2.866910 92.788 -56.0388
2.887685 92.927 -57.0981
2.908611 93.064 -58.1394
2.929688 93.198 -59.1685
2.950917 93.328 -60.1924
2.972301 93.453 -61.2177
2.993839 93.572 -62.2487
3.015534 93.686 -63.2874
3.037386 93.794 -64.3334
3.059396 93.896 -65.3845
3.081565 93.992 -66.4375
3.103896 94.082 -67.4884
3.126388 94.167 -68.5329
3.149043 94.248 -69.5665
3.171862 94.324 -70.5847
3.194847 94.396 -71.5837
3.217998 94.464 -72.5602
3.241317 94.528 -73.5125
3.264805 94.589 -74.4404
3.288463 94.646 -75.3463
3.312293 94.699 -76.2341
3.336295 94.748 -77.1090
3.360471 94.792 -77.9754
3.384822 94.830 -78.8358
3.409350 94.864 -79.6907
3.434056 94.893 -80.5393
3.458940 94.918 -81.3793
3.484005 94.938 -82.2072
3.509252 94.956 -83.0190
3.534681 94.969 -83.8106
3.560295 94.981 -84.5773
3.586094 94.989 -85.3147
3.612081 94.995 -86.0194
3.638255 94.999 -86.6888
3.664620 95.001 -87.3222
3.691175 94.999 -87.9203
3.717923 94.994 -88.4852
3.744864 94.986 -89.0188
3.772001 94.975 -89.5228
3.799335 94.961 -89.9984
3.826866 94.945 -90.4460
3.854597 94.928 -90.8652
3.882529 94.911 -91.2548
3.910664 94.893 -91.6125
3.939002 94.877 -91.9348
3.967546 94.862 -92.2173
3.996296 94.850 -92.4548
4.025255 94.840 -92.6439
4.054423 94.832 -92.7855
4.083804 94.825 -92.8868
4.113396 94.821 -92.9584
4.143204 94.819 -93.0100
4.173227 94.819 -93.0490
4.203468 94.821 -93.0795
4.233928 94.827 -93.1036
4.264609 94.837 -93.1215
4.295512 94.852 -93.1320
4.326639 94.872 -93.1333
4.357992 94.899 -93.1232
4.389572 94.931 -93.0995
4.421380 94.971 -93.0609
4.453419 95.016 -93.0074
4.485691 95.069 -92.9420
4.518196 95.127 -92.8690
4.550936 95.191 -92.7946
4.583914 95.260 -92.7261
4.617131 95.334 -92.6709
4.650589 95.411 -92.6360
4.684289 95.491 -92.6277
4.718233 95.575 -92.6504
4.752424 95.662 -92.7065
4.786862 95.752 -92.7966
4.821549 95.845 -92.9194
4.856488 95.941 -93.0734
4.891680 96.040 -93.2574
4.927127 96.141 -93.4709
4.962831 96.243 -93.7141
4.998794 96.345 -93.9874
5.035017 96.446 -94.2920
5.071503 96.545 -94.6290
5.108253 96.642 -94.9998
5.145270 96.737 -95.4049
5.182555 96.829 -95.8442
5.220110 96.919 -96.3159
5.257937 97.006 -96.8171
5.296038 97.091 -97.3438
5.334415 97.172 -97.8916
5.373071 97.250 -98.4565
5.412006 97.324 -99.0355
5.451224 97.394 -99.6265
5.490725 97.459 -100.2291
5.530514 97.519 -100.8438
5.570590 97.574 -101.4706
5.610957 97.624 -102.1084
5.651616 97.670 -102.7539
5.692570 97.712 -103.4028
5.733821 97.749 -104.0502
5.775370 97.782 -104.6912
5.817221 97.811 -105.3220
5.859375 97.835 -105.9407
5.901834 97.856 -106.5466
5.944602 97.872 -107.1399
5.987679 97.885 -107.7202
6.031068 97.894 -108.2863
6.074771 97.901 -108.8356
6.118792 97.905 -109.3652
6.163131 97.908 -109.8722
6.207792 97.910 -110.3539
6.252776 97.910 -110.8087
6.298086 97.910 -111.2363
6.343725 97.909 -111.6378
6.389694 97.908 -112.0143
6.435996 97.907 -112.3678
6.482634 97.908 -112.7000
6.529610 97.911 -113.0117
6.576926 97.917 -113.3038
6.624585 97.925 -113.5769
6.672590 97.936 -113.8318
6.720942 97.951 -114.0708
6.769645 97.969 -114.2977
6.818700 97.990 -114.5172
6.868111 98.015 -114.7339
6.917881 98.043 -114.9521
6.968010 98.076 -115.1748
7.018504 98.112 -115.4037
7.069362 98.152 -115.6404
7.120590 98.195 -115.8872
7.172189 98.241 -116.1470
7.224161 98.289 -116.4229
7.276511 98.338 -116.7178
7.329239 98.389 -117.0339
7.382350 98.441 -117.3721
7.435845 98.493 -117.7323
7.489729 98.545 -118.1135
7.544002 98.598 -118.5148
7.598669 98.649 -118.9348
7.653732 98.698 -119.3729
7.709194 98.745 -119.8284
7.765058 98.791 -120.3000
7.821327 98.833 -120.7860
7.878004 98.873 -121.2834
7.935091 98.911 -121.7886
7.992592 98.945 -122.2981
8.050510 98.976 -122.8092
8.108847 99.004 -123.3198
8.167607 99.029 -123.8282
8.226793 99.051 -124.3320
8.286408 99.070 -124.8286
8.346454 99.087 -125.3149
8.406936 99.102 -125.7886
8.467856 99.115 -126.2477
8.529218 99.127 -126.6915
8.591024 99.138 -127.1196
8.653278 99.148 -127.5318
8.715983 99.158 -127.9281
8.779143 99.169 -128.3083
8.842760 99.180 -128.6730
8.906839 99.192 -129.0230
8.971381 99.205 -129.3602
9.036392 99.220 -129.6869
9.101873 99.236 -130.0055
9.167829 99.254 -130.3182
9.234263 99.274 -130.6268
9.301178 99.296 -130.9335
9.368578 99.320 -131.2403
9.436467 99.345 -131.5497
9.504847 99.371 -131.8638
9.573723 99.398 -132.1842
9.643099 99.425 -132.5117
9.712976 99.451 -132.8470
9.783361 99.476 -133.1901
9.854255 99.499 -133.5412
9.925663 99.519 -133.9000
9.997588 99.536 -134.2660
10.070035 99.550 -134.6379
10.143007 99.560 -135.0143
10.216507 99.567 -135.3935
10.290540 99.572 -135.7739
10.365109 99.573 -136.1541
10.440219 99.572 -136.5328
10.515873 99.569 -136.9083
10.592076 99.564 -137.2792
10.668830 99.558 -137.6445
10.746141 99.551 -138.0034
10.824012 99.543 -138.3557
10.902447 99.534 -138.7013
10.981451 99.525 -139.0403
11.061027 99.516 -139.3731
11.141180 99.507 -139.7004
11.221913 99.498 -140.0232
11.303232 99.489 -140.3426
11.385140 99.480 -140.6597
11.467641 99.472 -140.9756
11.550741 99.463 -141.2913
11.634442 99.455 -141.6075
11.718750 99.448 -141.9250
11.803669 99.440 -142.2444
11.889203 99.433 -142.5659
11.975357 99.425 -142.8891
12.062136 99.417 -143.2140
12.149543 99.409 -143.5400
12.237583 99.400 -143.8668
12.326262 99.391 -144.1935
12.415583 99.381 -144.5195
12.505552 99.371 -144.8442
12.596172 99.360 -145.1672
12.687449 99.348 -145.4883
12.779387 99.336 -145.8074
12.871992 99.324 -146.1247
12.965268 99.312 -146.4406
13.059220 99.301 -146.7558
13.153852 99.289 -147.0712
13.249170 99.278 -147.3876
13.345179 99.268 -147.7061
13.441884 99.258 -148.0273
13.539289 99.248 -148.3521
13.637401 99.239 -148.6810
13.736223 99.229 -149.0143
13.835761 99.219 -149.3517
13.936021 99.209 -149.6929
14.037007 99.198 -150.0374
14.138725 99.187 -150.3841
14.241180 99.174 -150.7321
14.344377 99.161 -151.0800
14.448323 99.147 -151.4271
14.553021 99.133 -151.7723
14.658478 99.118 -152.1150
14.764700 99.104 -152.4547
14.871691 99.089 -152.7914
14.979457 99.075 -153.1257
15.088005 99.062 -153.4581
15.197339 99.049 -153.7896
15.307465 99.038 -154.1214
15.418389 99.027 -154.4547
15.530117 99.017 -154.7905
15.642655 99.008 -155.1299
15.756008 98.999 -155.4735
15.870182 98.990 -155.8214
15.985184 98.981 -156.1735
16.101019 98.972 -156.5291
16.217694 98.962 -156.8873
16.335214 98.952 -157.2467
16.453586 98.942 -157.6060
16.572815 98.931 -157.9637
16.692909 98.920 -158.3186
16.813872 98.909 -158.6697
16.935713 98.898 -159.0164
17.058436 98.888 -159.3583
17.182048 98.879 -159.6959
17.306556 98.870 -160.0294
17.431967 98.862 -160.3599
17.558286 98.854 -160.6884
17.685521 98.847 -161.0157
17.813677 98.841 -161.3428
17.942762 98.835 -161.6702
18.072783 98.829 -161.9984
18.203746 98.823 -162.3271
18.335658 98.817 -162.6561
18.468526 98.810 -162.9847
18.602356 98.803 -163.3121
18.737156 98.796 -163.6376
18.872934 98.789 -163.9605
19.009695 98.781 -164.2803
19.147447 98.774 -164.5968
19.286197 98.767 -164.9100
19.425953 98.759 -165.2202
19.566721 98.752 -165.5280
19.708510 98.745 -165.8338
19.851326 98.737 -166.1382
19.995177 98.729 -166.4417
20.140070 98.721 -166.7443
20.286013 98.713 -167.0464
20.433014 98.704 -167.3479
20.581080 98.695 -167.6487
20.730219 98.686 -167.9487
20.880439 98.676 -168.2479
21.031747 98.666 -168.5466
21.184152 98.657 -168.8450
21.337661 98.647 -169.1436
21.492282 98.637 -169.4429
21.648024 98.628 -169.7434
21.804895 98.618 -170.0455
21.962902 98.608 -170.3492
22.122054 98.598 -170.6545
22.282360 98.588 -170.9612
22.443827 98.577 -171.2687
22.606464 98.565 -171.5768
22.770280 98.554 -171.8850
22.935283 98.542 -172.1932
23.101481 98.530 -172.5014
23.268884 98.519 -172.8101
23.437500 98.507 -173.1195
23.607338 98.496 -173.4304
23.778406 98.484 -173.7430
23.950714 98.472 -174.0577
24.124271 98.461 -174.3744
24.299086 98.449 -174.6924
24.475167 98.437 -175.0114
24.652524 98.424 -175.3303
24.831166 98.412 -175.6484
25.011103 98.399 -175.9653
25.192344 98.387 -176.2805
25.374898 98.375 -176.5941
25.558775 98.363 -176.9063
25.743984 98.352 -177.2175
25.930536 98.341 -177.5281
26.118439 98.330 -177.8381
26.307704 98.319 -178.1476
26.498341 98.308 -178.4563
26.690359 98.297 -178.7637
26.883768 98.286 -179.0695
27.078579 98.274 -179.3730
27.274801 98.263 -179.6743
27.472446 98.251 -179.9733
27.671522 98.239 179.7300
27.872042 98.228 179.4353
28.074014 98.216 179.1423
28.277450 98.203 178.8509
28.482360 98.191 178.5610
28.688755 98.178 178.2725
28.896645 98.165 177.9851
29.106042 98.152 177.6987
29.316957 98.139 177.4130
29.529400 98.125 177.1271
29.743382 98.112 176.8409
29.958915 98.098 176.5538
30.176009 98.084 176.2657
30.394677 98.071 175.9767
30.614929 98.056 175.6871
30.836778 98.042 175.3970
31.060234 98.028 175.1066
31.285309 98.013 174.8158
31.512015 97.998 174.5242
31.740364 97.984 174.2314
31.970368 97.969 173.9370
32.202039 97.955 173.6405
32.435388 97.941 173.3421
32.670428 97.926 173.0421
32.907171 97.911 172.7408
33.145630 97.897 172.4390
33.385817 97.882 172.1369
33.627745 97.867 171.8348
33.871425 97.853 171.5329
34.116871 97.838 171.2311
34.364096 97.823 170.9295
34.613113 97.809 170.6284
34.863934 97.794 170.3282
35.116572 97.779 170.0295
35.371041 97.763 169.7325
35.627354 97.748 169.4377
35.885525 97.732 169.1452
36.145566 97.717 168.8549
36.407492 97.701 168.5666
36.671316 97.685 168.2799
36.937051 97.669 167.9944
37.204712 97.652 167.7098
37.474313 97.636 167.4260
37.745867 97.619 167.1428
38.019389 97.602 166.8602
38.294893 97.585 166.5784
38.572394 97.567 166.2976
38.851905 97.549 166.0177
39.133442 97.531 165.7385
39.417019 97.513 165.4597
39.702651 97.495 165.1808
39.990353 97.476 164.9016
40.280140 97.458 164.6219
40.572026 97.439 164.3420
40.866028 97.420 164.0620
41.162160 97.401 163.7822
41.460438 97.382 163.5028
41.760877 97.363 163.2236
42.063494 97.344 162.9446
42.368303 97.325 162.6655
42.675322 97.306 162.3865
42.984565 97.286 162.1079
43.296048 97.267 161.8298
43.609789 97.247 161.5528
43.925804 97.227 161.2770
44.244108 97.207 161.0024
44.564719 97.186 160.7292
44.887654 97.166 160.4575
45.212928 97.145 160.1870
45.540560 97.125 159.9176
45.870565 97.104 159.6490
46.202962 97.083 159.3810
46.537768 97.062 159.1133
46.875000 97.041 158.8456
47.214676 97.020 158.5779
47.556813 96.999 158.3101
47.901429 96.978 158.0422
48.248542 96.956 157.7745
48.598171 96.935 157.5074
48.950334 96.913 157.2413
49.305048 96.891 156.9764
49.662333 96.869 156.7129
50.022206 96.847 156.4507
50.384688 96.825 156.1895
50.749796 96.803 155.9294
51.117550 96.781 155.6705
51.487969 96.758 155.4130
51.861072 96.736 155.1571
52.236879 96.713 154.9030
52.615409 96.691 154.6503
52.996681 96.669 154.3990
53.380717 96.646 154.1487
53.767536 96.624 153.8992
54.157158 96.602 153.6502
54.549603 96.581 153.4014
54.944892 96.560 153.1523
55.343045 96.538 152.9023
55.744084 96.518 152.6508
56.148028 96.497 152.3973
56.554900 96.476 152.1414
56.964720 96.456 151.8827
57.377510 96.435 151.6209
57.793291 96.414 151.3561
58.212085 96.393 151.0890
58.633914 96.370 150.8204
59.058799 96.348 150.5515
59.486764 96.324 150.2834
59.917829 96.300 150.0164
60.352019 96.275 149.7507
60.789354 96.250 149.4862
61.229859 96.224 149.2232
61.673556 96.198 148.9621
62.120468 96.171 148.7033
62.570618 96.145 148.4471
63.024031 96.117 148.1932
63.480729 96.090 147.9413
63.940736 96.063 147.6909
64.404077 96.036 147.4414
64.870776 96.009 147.1927
65.340856 95.981 146.9449
65.814343 95.954 146.6984
66.291261 95.926 146.4532
66.771635 95.899 146.2097
67.255489 95.871 145.9678
67.742850 95.843 145.7271
68.233743 95.815 145.4874
68.728193 95.787 145.2484
69.226226 95.759 145.0098
69.727867 95.730 144.7714
70.233144 95.702 144.5330
70.742083 95.674 144.2943
71.254709 95.645 144.0552
71.771050 95.616 143.8159
72.291132 95.588 143.5767
72.814984 95.559 143.3380
73.342631 95.530 143.1002
73.874102 95.502 142.8638
74.409424 95.473 142.6285
74.948626 95.445 142.3945
75.491734 95.417 142.1616
76.038779 95.389 141.9301
76.589787 95.361 141.6999
77.144788 95.334 141.4703
77.703811 95.307 141.2399
78.266885 95.280 141.0069
78.834039 95.254 140.7696
79.405303 95.227 140.5268
79.980706 95.200 140.2778
80.560280 95.173 140.0224
81.144053 95.145 139.7606
81.732056 95.116 139.4928
82.324320 95.086 139.2201
82.920876 95.055 138.9440
83.521755 95.022 138.6670
84.126988 94.988 138.3915
84.736607 94.952 138.1207
85.350643 94.915 137.8572
85.969129 94.878 137.6030
86.592097 94.840 137.3588
87.219579 94.802 137.1244
87.851608 94.765 136.8988
88.488217 94.728 136.6804
89.129439 94.691 136.4671
89.775308 94.656 136.2568
90.425856 94.621 136.0482
91.081119 94.586 135.8405
91.741131 94.552 135.6337
92.405925 94.517 135.4279
93.075536 94.483 135.2230
93.750000 94.449 135.0186
94.429351 94.414 134.8143
95.113625 94.380 134.6096
95.802858 94.345 134.4042
96.497085 94.310 134.1984
97.196342 94.275 133.9925
97.900667 94.240 133.7872
98.610096 94.205 133.5829
99.324665 94.170 133.3807
100.044413 94.134 133.1816
100.769376 94.099 132.9872
101.499592 94.064 132.7986
102.235100 94.029 132.6157
102.975938 93.995 132.4369
103.722144 93.961 132.2599
104.473757 93.928 132.0823
105.230817 93.895 131.9017
105.993363 93.863 131.7164
106.761435 93.830 131.5252
107.535072 93.798 131.3277
108.314315 93.765 131.1243
109.099206 93.732 130.9157
109.889783 93.699 130.7029
110.686090 93.665 130.4863
111.488167 93.630 130.2662
112.296056 93.594 130.0428
113.109800 93.556 129.8167
113.929440 93.517 129.5898
114.755020 93.474 129.3656
115.586582 93.430 129.1481
116.424170 93.384 128.9415
117.267827 93.338 128.7491
118.117598 93.291 128.5732
118.973527 93.247 128.4148
119.835658 93.204 128.2729
120.704037 93.165 128.1427
121.578708 93.130 128.0159
122.459718 93.096 127.8855
123.347111 93.064 127.7485
124.240935 93.033 127.6050
125.141236 93.001 127.4564
126.048061 92.968 127.3040
126.961458 92.934 127.1484
127.881473 92.900 126.9897
128.808154 92.865 126.8278
129.741551 92.831 126.6621
130.681712 92.796 126.4922
131.628686 92.762 126.3182
132.582521 92.727 126.1407
133.543269 92.691 125.9611
134.510979 92.655 125.7807
135.485701 92.618 125.6011
136.467486 92.581 125.4236
137.456386 92.543 125.2493
138.452451 92.505 125.0786
139.455735 92.466 124.9111
140.466288 92.428 124.7463
141.484165 92.389 124.5829
142.509418 92.351 124.4205
143.542100 92.312 124.2585
144.582265 92.274 124.0967
145.629968 92.235 123.9346
146.685262 92.196 123.7717
147.748204 92.157 123.6074
148.818849 92.117 123.4426
149.897251 92.076 123.2792
150.983469 92.034 123.1211
152.077557 91.992 122.9720
153.179574 91.949 122.8351
154.289576 91.906 122.7109
155.407622 91.864 122.5967
156.533770 91.824 122.4868
157.668078 91.786 122.3747
158.810606 91.749 122.2550
159.961413 91.713 122.1245
161.120559 91.676 121.9828
162.288105 91.639 121.8318
163.464112 91.601 121.6745
164.648640 91.562 121.5142
165.841752 91.522 121.3540
167.043510 91.480 121.1969
168.253976 91.438 121.0448
169.473213 91.395 120.8991
170.701286 91.352 120.7601
171.938258 91.309 120.6276
173.184194 91.267 120.5010
174.439158 91.227 120.3796
175.703216 91.189 120.2618
176.976434 91.151 120.1459
178.258878 91.115 120.0300
179.550615 91.079 119.9122
180.851713 91.043 119.7908
182.162239 91.006 119.6647
183.482262 90.969 119.5333
184.811850 90.932 119.3970
186.151073 90.895 119.2569
187.500000 90.857 119.1144
188.858702 90.819 118.9712
190.227250 90.780 118.8284
191.605715 90.742 118.6874
192.994169 90.703 118.5491
194.392685 90.665 118.4147
195.801334 90.626 118.2857
197.220191 90.587 118.1633
198.649330 90.549 118.0481
200.088825 90.511 117.9391
201.538751 90.474 117.8351
202.999184 90.439 117.7338
204.470200 90.404 117.6314
205.951875 90.371 117.5240
207.444287 90.337 117.4088
208.947514 90.304 117.2855
210.461634 90.269 117.1560
211.986726 90.233 117.0243
213.522869 90.195 116.8950
215.070144 90.155 116.7730
216.628631 90.115 116.6623
218.198411 90.074 116.5645
219.779567 90.034 116.4780
221.372180 89.996 116.3984
222.976334 89.959 116.3205
224.592112 89.923 116.2397
226.219600 89.888 116.1534
227.858880 89.853 116.0608
229.510039 89.818 115.9630
231.173164 89.783 115.8618
232.848340 89.748 115.7589
234.535655 89.713 115.6548
236.235197 89.677 115.5491
237.947054 89.642 115.4410
239.671317 89.606 115.3301
241.408074 89.570 115.2175
243.157416 89.533 115.1058
244.919435 89.495 114.9979
246.694223 89.456 114.8971
248.481871 89.416 114.8064
250.282473 89.376 114.7286
252.096123 89.337 114.6653
253.922915 89.300 114.6151
255.762945 89.265 114.5724
257.616309 89.234 114.5275
259.483103 89.204 114.4705
261.363424 89.176 114.3960
263.257372 89.147 114.3055
265.165043 89.117 114.2057
267.086538 89.086 114.1047
269.021957 89.053 114.0097
270.971401 89.020 113.9244
272.934972 88.987 113.8495
274.912771 88.956 113.7831
276.904902 88.926 113.7230
278.911469 88.897 113.6674
280.932577 88.870 113.6141
282.968330 88.846 113.5596
285.018835 88.823 113.4978
287.084199 88.802 113.4216
289.164530 88.782 113.3248
291.259935 88.762 113.2063
293.370525 88.739 113.0715
295.496408 88.713 112.9302
297.637697 88.684 112.7916
299.794503 88.654 112.6618
301.966937 88.622 112.5432
304.155114 88.589 112.4346
306.359147 88.557 112.3334
308.579152 88.524 112.2361
310.815244 88.492 112.1393
313.067539 88.461 112.0415
315.336156 88.428 111.9440
317.621211 88.395 111.8510
319.922826 88.362 111.7668
322.241118 88.329 111.6939
324.576210 88.297 111.6313
326.928223 88.265 111.5760
329.297280 88.235 111.5247
331.683504 88.207 111.4736
334.087019 88.179 111.4197
336.507952 88.151 111.3605
338.946427 88.124 111.2950
341.402572 88.096 111.2244
343.876516 88.068 111.1517
346.368387 88.039 111.0804
348.878315 88.010 111.0125
351.406431 87.981 110.9489
353.952867 87.952 110.8893
356.517756 87.923 110.8331
359.101230 87.895 110.7795
361.703426 87.867 110.7280
364.324478 87.840 110.6783
366.964523 87.813 110.6305
369.623699 87.785 110.5847
372.302145 87.758 110.5410
375.000000 87.732 110.4996
377.717405 87.705 110.4602
380.454501 87.679 110.4227
383.211431 87.654 110.3867
385.988339 87.629 110.3521
388.785369 87.605 110.3188
391.602668 87.581 110.2869
394.440383 87.557 110.2567
397.298660 87.535 110.2285
400.177650 87.513 110.2019
403.077502 87.491 110.1758
405.998368 87.471 110.1490
408.940400 87.450 110.1207
411.903750 87.430 110.0920
414.888575 87.409 110.0653
417.895028 87.388 110.0435
420.923268 87.367 110.0287
423.973452 87.347 110.0223
427.045738 87.329 110.0229
430.140287 87.312 110.0270
433.257261 87.298 110.0298
436.396822 87.285 110.0283
439.559133 87.273 110.0214
442.744360 87.263 110.0095
445.952668 87.254 109.9907
449.184225 87.246 109.9603
452.439199 87.239 109.9124
455.717760 87.230 109.8433
459.020079 87.220 109.7566
462.346327 87.207 109.6625
465.696680 87.191 109.5736
469.071310 87.173 109.4981
472.470394 87.155 109.4382
475.894109 87.137 109.3912
479.342634 87.120 109.3513
482.816148 87.103 109.3127
486.314833 87.086 109.2740
489.838871 87.068 109.2404
493.388445 87.049 109.2194
496.963741 87.031 109.2147
500.564945 87.014 109.2222
504.192245 86.999 109.2339
507.845830 86.986 109.2429
511.525890 86.973 109.2464
515.232618 86.961 109.2458
518.966206 86.948 109.2446
522.726849 86.935 109.2473
526.514743 86.921 109.2584
530.330086 86.909 109.2797
534.173076 86.897 109.3087
538.043915 86.888 109.3408
541.942803 86.879 109.3736
545.869944 86.872 109.4075
549.825542 86.865 109.4434
553.809805 86.859 109.4796
557.822939 86.855 109.5137
561.865154 86.851 109.5437
565.936660 86.847 109.5699
570.037671 86.843 109.5952
574.168399 86.839 109.6235
578.329060 86.835 109.6571
582.519870 86.831 109.6957
586.741049 86.828 109.7386
590.992817 86.824 109.7875
595.275394 86.821 109.8451
599.589005 86.820 109.9109
603.933874 86.819 109.9812
608.310228 86.820 110.0523
612.718295 86.821 110.1228
617.158304 86.822 110.1949
621.630488 86.823 110.2737
626.135079 86.825 110.3651
630.672311 86.827 110.4709
635.242423 86.832 110.5872
639.845651 86.839 110.7080
644.482237 86.848 110.8315
649.152421 86.860 110.9584
653.856447 86.875 111.0870
658.594560 86.893 111.2102
663.367008 86.914 111.3182
668.174039 86.936 111.4038
673.015903 86.958 111.4681
677.892854 86.978 111.5188
682.805145 86.996 111.5651
687.753032 87.012 111.6138
692.736774 87.028 111.6703
697.756631 87.043 111.7387
702.812863 87.058 111.8203
707.905735 87.074 111.9125
713.035511 87.091 112.0111
718.202461 87.109 112.1127
723.406852 87.129 112.2166
728.648956 87.149 112.3232
733.929047 87.170 112.4335
739.247399 87.192 112.5477
744.604290 87.215 112.6662
750.000000 87.239 112.7897
755.434809 87.265 112.9185
760.909001 87.291 113.0522
766.422861 87.319 113.1904
771.976677 87.348 113.3320
777.570739 87.379 113.4760
783.205337 87.411 113.6213
788.880766 87.445 113.7690
794.597321 87.480 113.9218
800.355301 87.517 114.0817
806.155005 87.557 114.2476
811.996736 87.601 114.4135
817.880799 87.648 114.5709
823.807501 87.700 114.7104
829.777150 87.754 114.8240
835.790057 87.808 114.9097
841.846536 87.861 114.9742
847.946903 87.912 115.0280
854.091476 87.962 115.0790
860.280575 88.010 115.1312
866.514523 88.058 115.1876
872.793644 88.105 115.2510
879.118267 88.153 115.3217
885.488720 88.201 115.3958
891.905336 88.251 115.4699
898.368450 88.302 115.5442
904.878398 88.354 115.6211
911.435520 88.407 115.7017
918.040157 88.461 115.7848
924.692655 88.518 115.8679
931.393359 88.578 115.9478
938.142619 88.639 116.0208
944.940787 88.701 116.0846
951.788218 88.765 116.1399
958.685268 88.830 116.1888
965.632296 88.895 116.2338
972.629666 88.962 116.2768
979.677741 89.029 116.3184
986.776890 89.097 116.3578
993.927482 89.166 116.3957
1001.129891 89.237 116.4354
1008.384491 89.308 116.4799
1015.691660 89.383 116.5283
1023.051781 89.461 116.5762
1030.465236 89.543 116.6162
1037.932411 89.630 116.6374
1045.453698 89.719 116.6279
1053.029486 89.809 116.5825
1060.660172 89.898 116.5050
1068.346153 89.986 116.4039
1076.087829 90.071 116.2885
1083.885605 90.156 116.1653
1091.739887 90.239 116.0365
1099.651084 90.321 115.9023
1107.619609 90.403 115.7630
1115.645878 90.484 115.6194
1123.730308 90.564 115.4725
1131.873321 90.644 115.3238
1140.075341 90.723 115.1744
1148.336797 90.803 115.0256
1156.658119 90.882 114.8785
1165.039741 90.962 114.7349
1173.482099 91.043 114.5964
1181.985634 91.126 114.4627
1190.550789 91.212 114.3278
1199.178011 91.301 114.1813
1207.867749 91.392 114.0120
1216.620457 91.484 113.8151
1225.436590 91.575 113.5944
1234.316609 91.664 113.3590
1243.260976 91.751 113.1181
1252.270157 91.836 112.8795
1261.344623 91.920 112.6473
1270.484846 92.004 112.4221
1279.691303 92.089 112.2039
1288.964474 92.175 111.9924
1298.304842 92.264 111.7844
1307.712894 92.356 111.5737
1317.189120 92.451 111.3524
1326.734016 92.550 111.1133
1336.348077 92.651 110.8513
1346.031806 92.756 110.5630
1355.785708 92.862 110.2469
1365.610290 92.970 109.9022
1375.506065 93.078 109.5309
1385.473549 93.187 109.1375
1395.513261 93.295 108.7250
1405.625726 93.404 108.2927
1415.811469 93.511 107.8356
1426.071023 93.618 107.3471
1436.404921 93.720 106.8262
1446.813703 93.817 106.2798
1457.297912 93.908 105.7192
1467.858093 93.992 105.1559
1478.494798 94.070 104.5981
1489.208581 94.143 104.0526
1500.000000 94.209 103.5242
1510.869618 94.270 103.0168
1521.818002 94.325 102.5331
1532.845723 94.376 102.0744
1543.953355 94.422 101.6413
1555.141477 94.466 101.2327
1566.410674 94.510 100.8435
1577.761531 94.555 100.4621
1589.194642 94.603 100.0739
1600.710601 94.652 99.6688
1612.310010 94.700 99.2449
1623.993473 94.747 98.8055
1635.761599 94.792 98.3568
1647.615002 94.835 97.9037
1659.554299 94.877 97.4503
1671.580114 94.917 96.9997
1683.693072 94.957 96.5530
1695.893807 94.997 96.1088
1708.182952 95.035 95.6652
1720.561150 95.073 95.2224
1733.029045 95.108 94.7831
1745.587288 95.141 94.3519
1758.236533 95.172 93.9349
1770.977440 95.202 93.5374
1783.810673 95.234 93.1585
1796.736900 95.269 92.7896
1809.756796 95.307 92.4166
1822.871040 95.347 92.0288
1836.080315 95.389 91.6218
1849.385310 95.431 91.1964
1862.786718 95.472 90.7556
1876.285239 95.514 90.3038
1889.881575 95.556 89.8461
1903.576436 95.600 89.3885
1917.370535 95.646 88.9362
1931.264593 95.697 88.4924
1945.259332 95.753 88.0555
1959.355483 95.815 87.6172
1973.553781 95.883 87.1641
1987.854965 95.953 86.6860
2002.259781 96.025 86.1788
2016.768981 96.096 85.6445
2031.383320 96.165 85.0876
2046.103561 96.232 84.5134
2060.930471 96.298 83.9265
2075.864823 96.361 83.3289
2090.907395 96.421 82.7212
2106.058972 96.479 82.1050
2121.320344 96.534 81.4843
2136.692305 96.585 80.8659
2152.175658 96.633 80.2570
2167.771210 96.680 79.6595
2183.479774 96.727 79.0669
2199.302169 96.775 78.4680
2215.239219 96.823 77.8533
2231.291755 96.870 77.2179
2247.460615 96.915 76.5614
2263.746641 96.957 75.8871
2280.150683 96.996 75.2015
2296.673595 97.032 74.5125
2313.316238 97.066 73.8272
2330.079481 97.099 73.1478
2346.964198 97.132 72.4685
2363.971268 97.166 71.7792
2381.101578 97.200 71.0710
2398.356022 97.231 70.3405
2415.735498 97.260 69.5883
2433.240913 97.285 68.8180
2450.873180 97.306 68.0343
2468.633217 97.323 67.2412
2486.521951 97.335 66.4435
2504.540314 97.342 65.6481
2522.689246 97.344 64.8652
2540.969692 97.342 64.1049
2559.382606 97.338 63.3710
2577.928947 97.333 62.6595
2596.609683 97.329 61.9623
2615.425787 97.324 61.2723
2634.378241 97.318 60.5855
2653.468031 97.311 59.9026
2672.696154 97.302 59.2283
2692.063613 97.292 58.5693
2711.571415 97.281 57.9297
2731.220579 97.272 57.3058
2751.012130 97.266 56.6877
2770.947098 97.261 56.0638
2791.026522 97.257 55.4260
2811.251451 97.253 54.7698
2831.622938 97.248 54.0936
2852.142045 97.241 53.3977
2872.809842 97.231 52.6841
2893.627406 97.217 51.9591
2914.595823 97.199 51.2328
2935.716186 97.177 50.5147
2956.989596 97.153 49.8082
2978.417161 97.127 49.1105
3000.000000 97.100 48.4165
3021.739237 97.071 47.7232
3043.636005 97.038 47.0318
3065.691446 97.002 46.3489
3087.906710 96.963 45.6834
3110.282955 96.923 45.0408
3132.821347 96.881 44.4189
3155.523062 96.840 43.8110
3178.389283 96.798 43.2097
3201.421202 96.755 42.6091
3224.620020 96.711 42.0060
3247.986946 96.664 41.3995
3271.523198 96.614 40.7930
3295.230004 96.558 40.1958
3319.108599 96.498 39.6204
3343.160228 96.434 39.0756
3367.386145 96.367 38.5646
3391.787613 96.299 38.0868
3416.365904 96.228 37.6420
3441.122300 96.156 37.2344
3466.058091 96.082 36.8734
3491.174576 96.008 36.5687
3516.473066 95.935 36.3241
3541.954880 95.864 36.1362
3567.621345 95.799 35.9970
3593.473800 95.738 35.8971
3619.513592 95.682 35.8268
3645.742080 95.630 35.7784
3672.160630 95.583 35.7496
3698.770620 95.539 35.7440
3725.573436 95.499 35.7651
3752.570477 95.464 35.8110
3779.763150 95.435 35.8745
3807.152872 95.412 35.9468
3834.741071 95.393 36.0234
3862.529185 95.380 36.1052
3890.518664 95.371 36.1921
3918.710966 95.370 36.2783
3947.107561 95.377 36.3513
3975.709929 95.392 36.3948
4004.519563 95.415 36.3916
4033.537962 95.445 36.3267
4062.766641 95.478 36.1926
4092.207123 95.512 35.9905
4121.860942 95.547 35.7247
4151.729646 95.581 35.3978
4181.814790 95.613 35.0104
4212.117944 95.641 34.5659
4242.640687 95.663 34.0743
4273.384610 95.679 33.5487
4304.351317 95.690 32.9996
4335.542421 95.695 32.4309
4366.959549 95.697 31.8409
4398.604338 95.695 31.2239
4430.478438 95.688 30.5739
4462.583511 95.675 29.8907
4494.921231 95.655 29.1800
4527.493283 95.629 28.4485
4560.301365 95.594 27.7012
4593.347189 95.552 26.9429
4626.632476 95.500 26.1837
4660.158962 95.438 25.4385
4693.928395 95.369 24.7217
4727.942535 95.292 24.0421
4762.203156 95.211 23.4011
4796.712043 95.127 22.7938
4831.470996 95.040 22.2130
4866.481826 94.950 21.6555
4901.746360 94.857 21.1213
4937.266434 94.761 20.6105
4973.043902 94.660 20.1224
5009.080628 94.555 19.6597
5045.378492 94.445 19.2319
5081.939384 94.330 18.8515
5118.765212 94.210 18.5287
5155.857894 94.089 18.2673
5193.219366 93.968 18.0630
5230.851574 93.848 17.9078
5268.756481 93.728 17.7952
5306.936062 93.610 17.7205
5345.392309 93.492 17.6777
5384.127225 93.375 17.6617
5423.142830 93.256 17.6739
5462.441159 93.135 17.7220
5502.024259 93.012 17.8168
5541.894195 92.889 17.9654
5582.053045 92.767 18.1678
5622.502902 92.648 18.4188
5663.245876 92.534 18.7122
5704.284090 92.424 19.0417
5745.619684 92.319 19.3990
5787.254813 92.218 19.7763
5829.191647 92.122 20.1721
5871.432373 92.027 20.5916
5913.979192 91.936 21.0430
5956.834323 91.849 21.5325
6000.000000 91.766 22.0609
6043.478473 91.690 22.6255
6087.272010 91.620 23.2231
6131.382892 91.558 23.8478
6175.813420 91.503 24.4940
6220.565910 91.456 25.1607
6265.642695 91.414 25.8536
6311.046124 91.381 26.5816
6356.778566 91.356 27.3503
6402.842404 91.344 28.1571
6449.240040 91.346 28.9907
6495.973891 91.365 29.8320
6543.046396 91.401 30.6569
6590.460007 91.453 31.4427
6638.217197 91.518 32.1761
6686.320456 91.596 32.8546
6734.772290 91.685 33.4814
6783.575226 91.784 34.0603
6832.731809 91.894 34.5917
6882.244600 92.016 35.0715
6932.116181 92.149 35.4891
6982.349153 92.294 35.8304
7032.946133 92.450 36.0823
7083.909760 92.618 36.2348
7135.242690 92.798 36.2780
7186.947600 92.990 36.1990
7239.027185 93.194 35.9813
7291.484160 93.411 35.6024
7344.321260 93.639 35.0348
7397.541239 93.875 34.2505
7451.146872 94.116 33.2268
7505.140954 94.356 31.9473
7559.526299 94.591 30.4000
7614.305743 94.815 28.5773
7669.482141 95.025 26.4750
7725.058371 95.212 24.0922
7781.037328 95.370 21.4352
7837.421932 95.491 18.5244
7894.215122 95.566 15.3968
7951.419859 95.591 12.1041
8009.039125 95.560 8.7084
8067.075924 95.472 5.2769
8125.533282 95.328 1.8738
8184.414245 95.131 -1.4418
8243.721885 94.883 -4.6152
8303.459292 94.588 -7.5952
8363.629581 94.253 -10.3369
8424.235888 93.883 -12.8046
8485.281374 93.487 -14.9780
8546.769221 93.074 -16.8566
8608.702634 92.651 -18.4569
8671.084842 92.225 -19.8032
8733.919097 91.797 -20.9159
8797.208675 91.368 -21.8055
8860.956876 90.940 -22.4741
8925.167022 90.515 -22.9248
8989.842461 90.097 -23.1692
9054.986566 89.687 -23.2255
9120.602731 89.290 -23.1139
9186.694378 88.908 -22.8519
9253.264952 88.541 -22.4523
9320.317925 88.192 -21.9278
9387.856790 87.863 -21.2963
9455.885071 87.555 -20.5800
9524.406312 87.269 -19.8012
9593.424086 87.005 -18.9769
9662.941992 86.762 -18.1163
9732.963653 86.541 -17.2264
9803.492719 86.342 -16.3188
9874.532869 86.164 -15.4100
9946.087805 86.007 -14.5184
10018.161257 85.869 -13.6567
10090.756983 85.749 -12.8315
10163.878768 85.646 -12.0488
10237.530423 85.559 -11.3198
10311.715789 85.487 -10.6614
10386.438732 85.429 -10.0898
10461.703149 85.381 -9.6151
10537.512962 85.341 -9.2419
10613.872125 85.308 -8.9766
10690.784618 85.278 -8.8293
10768.254450 85.248 -8.8095
10846.285661 85.213 -8.9184
10924.882318 85.168 -9.1456
11004.048518 85.109 -9.4734
11083.788390 85.033 -9.8804
11164.106090 84.936 -10.3405
11245.005805 84.814 -10.8171
11326.491752 84.665 -11.2601
11408.568180 84.490 -11.6111
11491.239368 84.291 -11.8111
11574.509626 84.073 -11.8058
11658.383294 83.845 -11.5466
11742.864745 83.618 -10.9936
11827.958384 83.405 -10.1271
11913.668646 83.222 -8.9623
12000.000000 83.085 -7.5571
12086.956947 83.008 -6.0072
12174.544019 82.998 -4.4370
12262.765784 83.058 -2.9870
12351.626840 83.183 -1.8001
12441.131819 83.360 -1.0002
12531.285389 83.570 -0.6730
12622.092249 83.795 -0.8586
12713.557132 84.013 -1.5557
12805.684808 84.206 -2.7298
12898.480079 84.358 -4.3177
12991.947783 84.456 -6.2319
13086.092792 84.493 -8.3708
13180.920015 84.465 -10.6306
13276.434395 84.372 -12.9136
13372.640911 84.219 -15.1310
13469.544580 84.010 -17.2059
13567.150452 83.754 -19.0784
13665.463617 83.460 -20.7103
13764.489200 83.139 -22.0807
13864.232362 82.800 -23.1815
13964.698305 82.451 -24.0162
14065.892266 82.101 -24.6014
14167.819519 81.758 -24.9626
14270.485380 81.427 -25.1278
14373.895200 81.113 -25.1266
14478.054370 80.820 -24.9923
14582.968320 80.551 -24.7587
14688.642520 80.306 -24.4555
14795.082478 80.088 -24.1089
14902.293745 79.897 -23.7455
15010.281908 79.734 -23.3900
15119.052599 79.600 -23.0637
15228.611486 79.497 -22.7874
15338.964283 79.424 -22.5826
15450.116741 79.382 -22.4703
15562.074656 79.369 -22.4695
15674.843864 79.384 -22.5989
15788.430244 79.423 -22.8773
15902.839718 79.482 -23.3226
16018.078250 79.558 -23.9504
16134.151848 79.647 -24.7761
16251.066563 79.745 -25.8149
16368.828491 79.848 -27.0798
16487.443769 79.953 -28.5811
16606.918584 80.055 -30.3283
16727.259161 80.149 -32.3287
16848.471777 80.232 -34.5847
16970.562748 80.299 -37.0960
17093.538442 80.345 -39.8606
17217.405268 80.367 -42.8718
17342.169684 80.359 -46.1188
17467.838194 80.315 -49.5878
17594.417350 80.229 -53.2601
17721.913751 80.093 -57.1093
17850.334044 79.900 -61.1031
17979.684923 79.644 -65.2014
18109.973131 79.319 -69.3546
18241.205462 78.919 -73.5053
18373.388756 78.441 -77.5901
18506.529905 77.882 -81.5389
18640.635849 77.244 -85.2796
18775.713581 76.527 -88.7425
18911.770141 75.735 -91.8616
19048.812624 74.872 -94.5779
19186.848172 73.947 -96.8436
19325.883983 72.972 -98.6244
19465.927305 71.970 -99.9046
19606.985439 70.986 -100.6976
19749.065738 70.091 -101.0641
19892.175609 69.390 -101.1329
20036.322514 69.001 -101.0891
