* Measurement data measured by REW V5.31
* Source: EXCL: Microphone (USB Sound Device        ), MICROPHONE (Master Volume), L, volume: 0.390
* Format: 256k Log Swept Sine, 1 sweep at -4.0 dBFS with no timing reference
* Dated: Jul 22, 2024 11:36:55 PM
* REW Settings:
*  C-weighting compensation: Off
*  Target level: 75.0 dB
* Note: Artti R1 R
* Measurement: R Artti R1
* Smoothing: 1/12 octave
* Frequency Step: 96 ppo
* Start Frequency: 0.36621094 Hz
*
* Freq(Hz) SPL(dB) Phase(degrees)
0.366211 83.704 -73.9667
0.368865 83.711 -74.0379
0.371538 83.723 -74.1445
0.374230 83.738 -74.2781
0.376942 83.754 -74.4316
0.379673 83.771 -74.5998
0.382424 83.789 -74.7791
0.385196 83.808 -74.9676
0.387987 83.827 -75.1639
0.390798 83.846 -75.3673
0.393630 83.865 -75.5776
0.396483 83.885 -75.7945
0.399356 83.905 -76.0179
0.402250 83.924 -76.2478
0.405165 83.944 -76.4841
0.408101 83.965 -76.7270
0.411058 83.985 -76.9763
0.414037 84.005 -77.2320
0.417037 84.026 -77.4941
0.420059 84.047 -77.7627
0.423103 84.067 -78.0377
0.426169 84.088 -78.3191
0.429257 84.110 -78.6068
0.432368 84.131 -78.9009
0.435501 84.152 -79.2012
0.438656 84.174 -79.5079
0.441835 84.196 -79.8207
0.445037 84.218 -80.1397
0.448262 84.240 -80.4648
0.451510 84.262 -80.7959
0.454782 84.285 -81.1330
0.458077 84.307 -81.4761
0.461397 84.330 -81.8249
0.464740 84.353 -82.1796
0.468108 84.376 -82.5399
0.471500 84.399 -82.9058
0.474917 84.423 -83.2772
0.478358 84.446 -83.6540
0.481825 84.470 -84.0361
0.485316 84.494 -84.4234
0.488833 84.518 -84.8157
0.492375 84.542 -85.2130
0.495943 84.567 -85.6151
0.499537 84.591 -86.0219
0.503157 84.616 -86.4332
0.506803 84.641 -86.8490
0.510475 84.666 -87.2690
0.514175 84.692 -87.6932
0.517900 84.717 -88.1214
0.521653 84.743 -88.5534
0.525434 84.769 -88.9891
0.529241 84.795 -89.4283
0.533076 84.821 -89.8709
0.536939 84.848 -90.3167
0.540830 84.875 -90.7655
0.544749 84.901 -91.2171
0.548696 84.929 -91.6715
0.552673 84.956 -92.1284
0.556677 84.983 -92.5876
0.560711 85.011 -93.0490
0.564774 85.039 -93.5124
0.568867 85.067 -93.9777
0.572989 85.095 -94.4445
0.577141 85.124 -94.9129
0.581324 85.152 -95.3826
0.585536 85.181 -95.8535
0.589779 85.210 -96.3253
0.594053 85.239 -96.7979
0.598358 85.269 -97.2712
0.602694 85.299 -97.7449
0.607061 85.329 -98.2190
0.611460 85.359 -98.6933
0.615891 85.389 -99.1675
0.620354 85.420 -99.6417
0.624849 85.451 -100.1155
0.629377 85.482 -100.5889
0.633938 85.513 -101.0618
0.638532 85.544 -101.5340
0.643159 85.576 -102.0054
0.647819 85.608 -102.4758
0.652514 85.640 -102.9452
0.657242 85.673 -103.4135
0.662005 85.705 -103.8805
0.666802 85.738 -104.3461
0.671634 85.771 -104.8103
0.676501 85.805 -105.2730
0.681403 85.838 -105.7341
0.686341 85.872 -106.1936
0.691314 85.906 -106.6514
0.696324 85.940 -107.1075
0.701370 85.975 -107.5619
0.706452 86.009 -108.0148
0.711571 86.043 -108.4664
0.716728 86.076 -108.9171
0.721921 86.108 -109.3676
0.727153 86.139 -109.8189
0.732422 86.168 -110.2723
0.737729 86.194 -110.7295
0.743075 86.217 -111.1920
0.748460 86.239 -111.6610
0.753883 86.259 -112.1375
0.759346 86.279 -112.6220
0.764849 86.297 -113.1147
0.770391 86.315 -113.6157
0.775974 86.333 -114.1250
0.781597 86.350 -114.6423
0.787261 86.367 -115.1677
0.792966 86.384 -115.7008
0.798712 86.400 -116.2415
0.804500 86.416 -116.7895
0.810329 86.431 -117.3446
0.816201 86.446 -117.9065
0.822116 86.461 -118.4750
0.828073 86.475 -119.0498
0.834074 86.488 -119.6305
0.840118 86.501 -120.2170
0.846206 86.514 -120.8089
0.852338 86.526 -121.4058
0.858514 86.537 -122.0076
0.864735 86.548 -122.6138
0.871001 86.558 -123.2240
0.877313 86.568 -123.8381
0.883670 86.576 -124.4556
0.890074 86.585 -125.0761
0.896524 86.592 -125.6993
0.903020 86.599 -126.3249
0.909564 86.605 -126.9525
0.916155 86.610 -127.5817
0.922794 86.614 -128.2121
0.929481 86.618 -128.8433
0.936216 86.621 -129.4751
0.943000 86.622 -130.1069
0.949834 86.623 -130.7384
0.956717 86.623 -131.3694
0.963649 86.622 -131.9992
0.970632 86.620 -132.6277
0.977666 86.616 -133.2543
0.984750 86.612 -133.8788
0.991886 86.606 -134.5008
0.999074 86.599 -135.1199
1.006314 86.591 -135.7357
1.013606 86.582 -136.3479
1.020951 86.572 -136.9561
1.028349 86.560 -137.5600
1.035801 86.546 -138.1593
1.043307 86.531 -138.7537
1.050867 86.515 -139.3430
1.058482 86.497 -139.9270
1.066152 86.478 -140.5059
1.073878 86.457 -141.0802
1.081660 86.435 -141.6506
1.089498 86.411 -142.2188
1.097393 86.386 -142.7871
1.105345 86.360 -143.3584
1.113355 86.333 -143.9358
1.121423 86.305 -144.5222
1.129549 86.276 -145.1197
1.137734 86.246 -145.7300
1.145979 86.216 -146.3541
1.154283 86.184 -146.9930
1.162647 86.152 -147.6470
1.171072 86.118 -148.3167
1.179558 86.083 -149.0024
1.188106 86.047 -149.7043
1.196715 86.010 -150.4227
1.205387 85.970 -151.1576
1.214122 85.929 -151.9092
1.222920 85.886 -152.6776
1.231782 85.841 -153.4628
1.240708 85.794 -154.2646
1.249699 85.745 -155.0832
1.258754 85.693 -155.9181
1.267876 85.638 -156.7692
1.277063 85.580 -157.6362
1.286318 85.520 -158.5184
1.295639 85.456 -159.4154
1.305027 85.388 -160.3266
1.314484 85.317 -161.2510
1.324009 85.242 -162.1877
1.333604 85.163 -163.1356
1.343268 85.080 -164.0935
1.353002 84.992 -165.0599
1.362806 84.899 -166.0331
1.372681 84.802 -167.0114
1.382628 84.699 -167.9928
1.392647 84.590 -168.9751
1.402739 84.476 -169.9563
1.412904 84.355 -170.9342
1.423142 84.227 -171.9070
1.433455 84.092 -172.8735
1.443843 83.948 -173.8336
1.454305 83.795 -174.7892
1.464844 83.630 -175.7439
1.475459 83.453 -176.7038
1.486150 83.261 -177.6758
1.496920 83.053 -178.6668
1.507767 82.829 -179.6827
1.518693 82.588 179.2712
1.529698 82.332 178.1908
1.540783 82.061 177.0718
1.551948 81.775 175.9108
1.563194 81.476 174.7038
1.574521 81.166 173.4470
1.585931 80.846 172.1365
1.597423 80.516 170.7680
1.608999 80.180 169.3367
1.620658 79.839 167.8377
1.632402 79.494 166.2655
1.644232 79.147 164.6141
1.656146 78.801 162.8773
1.668147 78.458 161.0479
1.680235 78.120 159.1183
1.692411 77.789 157.0803
1.704675 77.468 154.9247
1.717028 77.160 152.6418
1.729470 76.867 150.2206
1.742003 76.593 147.6491
1.754626 76.341 144.9138
1.767341 76.114 141.9988
1.780147 75.915 138.8854
1.793047 75.748 135.5497
1.806040 75.615 131.9601
1.819128 75.518 128.0742
1.832310 75.460 123.8360
1.845587 75.440 119.1760
1.858961 75.458 114.0185
1.872432 75.513 108.2939
1.886001 75.604 101.9566
1.899667 75.728 95.0070
1.913433 75.884 87.5120
1.927299 76.070 79.6186
1.941265 76.283 71.5449
1.955332 76.522 63.5462
1.969501 76.783 55.8641
1.983773 77.065 48.6835
1.998148 77.364 42.1121
2.012627 77.679 36.1852
2.027212 78.006 30.8847
2.041902 78.342 26.1609
2.056698 78.686 21.9493
2.071602 79.034 18.1829
2.086614 79.383 14.7970
2.101734 79.731 11.7336
2.116964 80.075 8.9413
2.132304 80.412 6.3750
2.147756 80.742 3.9954
2.163320 81.064 1.7677
2.178996 81.378 -0.3389
2.194786 81.685 -2.3511
2.210690 81.989 -4.2915
2.226710 82.292 -6.1765
2.242845 82.596 -8.0168
2.259098 82.903 -9.8174
2.275468 83.213 -11.5800
2.291957 83.526 -13.3041
2.308566 83.842 -14.9886
2.325295 84.160 -16.6321
2.342145 84.479 -18.2332
2.359117 84.799 -19.7911
2.376212 85.117 -21.3055
2.393431 85.433 -22.7766
2.410775 85.746 -24.2047
2.428244 86.055 -25.5909
2.445840 86.358 -26.9367
2.463564 86.654 -28.2439
2.481416 86.942 -29.5153
2.499397 87.221 -30.7543
2.517509 87.491 -31.9656
2.535752 87.749 -33.1554
2.554127 87.996 -34.3310
2.572635 88.232 -35.5006
2.591277 88.457 -36.6720
2.610055 88.671 -37.8505
2.628968 88.875 -39.0384
2.648019 89.069 -40.2355
2.667208 89.255 -41.4396
2.686535 89.431 -42.6472
2.706003 89.600 -43.8543
2.725612 89.762 -45.0566
2.745363 89.916 -46.2499
2.765257 90.065 -47.4301
2.785295 90.207 -48.5933
2.805478 90.345 -49.7363
2.825808 90.479 -50.8564
2.846285 90.609 -51.9518
2.866910 90.735 -53.0218
2.887685 90.858 -54.0676
2.908611 90.978 -55.0923
2.929688 91.095 -56.1012
2.950917 91.208 -57.1008
2.972301 91.316 -58.0974
2.993839 91.418 -59.0957
3.015534 91.516 -60.0975
3.037386 91.608 -61.1031
3.059396 91.694 -62.1106
3.081565 91.776 -63.1171
3.103896 91.852 -64.1192
3.126388 91.924 -65.1128
3.149043 91.991 -66.0935
3.171862 92.054 -67.0572
3.194847 92.114 -67.9999
3.217998 92.170 -68.9182
3.241317 92.223 -69.8099
3.264805 92.272 -70.6746
3.288463 92.318 -71.5135
3.312293 92.359 -72.3302
3.336295 92.397 -73.1290
3.360471 92.430 -73.9137
3.384822 92.458 -74.6869
3.409350 92.482 -75.4493
3.434056 92.502 -76.2003
3.458940 92.517 -76.9382
3.484005 92.529 -77.6601
3.509252 92.538 -78.3628
3.534681 92.545 -79.0424
3.560295 92.550 -79.6948
3.586094 92.553 -80.3160
3.612081 92.554 -80.9026
3.638255 92.554 -81.4517
3.664620 92.552 -81.9618
3.691175 92.548 -82.4330
3.717923 92.542 -82.8661
3.744864 92.534 -83.2628
3.772001 92.523 -83.6249
3.799335 92.511 -83.9540
3.826866 92.498 -84.2516
3.854597 92.484 -84.5189
3.882529 92.471 -84.7570
3.910664 92.460 -84.9662
3.939002 92.451 -85.1466
3.967546 92.445 -85.2977
3.996296 92.443 -85.4181
4.025255 92.444 -85.5056
4.054423 92.450 -85.5581
4.083804 92.459 -85.5742
4.113396 92.472 -85.5545
4.143204 92.488 -85.5015
4.173227 92.508 -85.4197
4.203468 92.532 -85.3149
4.233928 92.561 -85.1939
4.264609 92.594 -85.0634
4.295512 92.632 -84.9296
4.326639 92.676 -84.7981
4.357992 92.725 -84.6721
4.389572 92.782 -84.5532
4.421380 92.845 -84.4407
4.453419 92.915 -84.3338
4.485691 92.991 -84.2326
4.518196 93.074 -84.1392
4.550936 93.162 -84.0573
4.583914 93.254 -83.9919
4.617131 93.350 -83.9485
4.650589 93.449 -83.9328
4.684289 93.550 -83.9495
4.718233 93.653 -84.0023
4.752424 93.757 -84.0933
4.786862 93.863 -84.2223
4.821549 93.971 -84.3881
4.856488 94.080 -84.5889
4.891680 94.191 -84.8223
4.927127 94.302 -85.0867
4.962831 94.413 -85.3807
4.998794 94.523 -85.7034
5.035017 94.631 -86.0544
5.071503 94.736 -86.4340
5.108253 94.839 -86.8427
5.145270 94.938 -87.2811
5.182555 95.034 -87.7493
5.220110 95.126 -88.2455
5.257937 95.215 -88.7671
5.296038 95.301 -89.3098
5.334415 95.383 -89.8689
5.373071 95.461 -90.4401
5.412006 95.535 -91.0197
5.451224 95.604 -91.6051
5.490725 95.669 -92.1958
5.530514 95.730 -92.7919
5.570590 95.785 -93.3936
5.610957 95.836 -94.0001
5.651616 95.882 -94.6088
5.692570 95.924 -95.2157
5.733821 95.962 -95.8163
5.775370 95.997 -96.4062
5.817221 96.028 -96.9819
5.859375 96.056 -97.5411
5.901834 96.081 -98.0833
5.944602 96.102 -98.6085
5.987679 96.121 -99.1168
6.031068 96.137 -99.6075
6.074771 96.151 -100.0797
6.118792 96.164 -100.5311
6.163131 96.176 -100.9599
6.207792 96.188 -101.3643
6.252776 96.201 -101.7432
6.298086 96.213 -102.0965
6.343725 96.227 -102.4255
6.389694 96.241 -102.7325
6.435996 96.257 -103.0200
6.482634 96.275 -103.2908
6.529610 96.296 -103.5471
6.576926 96.320 -103.7905
6.624585 96.347 -104.0221
6.672590 96.378 -104.2432
6.720942 96.412 -104.4560
6.769645 96.450 -104.6641
6.818700 96.491 -104.8720
6.868111 96.535 -105.0842
6.917881 96.583 -105.3047
6.968010 96.634 -105.5362
7.018504 96.688 -105.7803
7.069362 96.745 -106.0380
7.120590 96.804 -106.3107
7.172189 96.865 -106.5999
7.224161 96.927 -106.9075
7.276511 96.990 -107.2356
7.329239 97.053 -107.5852
7.382350 97.116 -107.9568
7.435845 97.179 -108.3496
7.489729 97.241 -108.7621
7.544002 97.302 -109.1923
7.598669 97.361 -109.6384
7.653732 97.418 -110.0988
7.709194 97.473 -110.5723
7.765058 97.525 -111.0574
7.821327 97.574 -111.5524
7.878004 97.621 -112.0543
7.935091 97.665 -112.5598
7.992592 97.706 -113.0656
8.050510 97.744 -113.5687
8.108847 97.779 -114.0675
8.167607 97.812 -114.5603
8.226793 97.843 -115.0457
8.286408 97.871 -115.5214
8.346454 97.898 -115.9855
8.406936 97.923 -116.4360
8.467856 97.948 -116.8719
8.529218 97.971 -117.2928
8.591024 97.995 -117.6990
8.653278 98.018 -118.0910
8.715983 98.042 -118.4696
8.779143 98.067 -118.8354
8.842760 98.092 -119.1895
8.906839 98.120 -119.5328
8.971381 98.148 -119.8676
9.036392 98.178 -120.1960
9.101873 98.210 -120.5209
9.167829 98.243 -120.8441
9.234263 98.278 -121.1674
9.301178 98.315 -121.4924
9.368578 98.352 -121.8208
9.436467 98.391 -122.1544
9.504847 98.430 -122.4945
9.573723 98.470 -122.8422
9.643099 98.509 -123.1979
9.712976 98.546 -123.5614
9.783361 98.582 -123.9323
9.854255 98.616 -124.3101
9.925663 98.646 -124.6942
9.997588 98.672 -125.0835
10.070035 98.695 -125.4767
10.143007 98.715 -125.8723
10.216507 98.731 -126.2684
10.290540 98.745 -126.6636
10.365109 98.756 -127.0565
10.440219 98.764 -127.4462
10.515873 98.771 -127.8312
10.592076 98.776 -128.2106
10.668830 98.780 -128.5836
10.746141 98.783 -128.9500
10.824012 98.786 -129.3097
10.902447 98.788 -129.6631
10.981451 98.790 -130.0107
11.061027 98.792 -130.3531
11.141180 98.794 -130.6911
11.221913 98.796 -131.0259
11.303232 98.799 -131.3586
11.385140 98.801 -131.6903
11.467641 98.804 -132.0220
11.550741 98.807 -132.3544
11.634442 98.810 -132.6884
11.718750 98.813 -133.0243
11.803669 98.816 -133.3625
11.889203 98.819 -133.7031
11.975357 98.822 -134.0458
12.062136 98.825 -134.3901
12.149543 98.827 -134.7357
12.237583 98.828 -135.0818
12.326262 98.829 -135.4281
12.415583 98.829 -135.7737
12.505552 98.829 -136.1183
12.596172 98.828 -136.4614
12.687449 98.826 -136.8030
12.779387 98.824 -137.1431
12.871992 98.822 -137.4821
12.965268 98.820 -137.8202
13.059220 98.817 -138.1581
13.153852 98.815 -138.4966
13.249170 98.813 -138.8365
13.345179 98.812 -139.1785
13.441884 98.810 -139.5232
13.539289 98.809 -139.8712
13.637401 98.808 -140.2227
13.736223 98.806 -140.5779
13.835761 98.804 -140.9365
13.936021 98.802 -141.2980
14.037007 98.799 -141.6619
14.138725 98.795 -142.0275
14.241180 98.790 -142.3937
14.344377 98.785 -142.7598
14.448323 98.779 -143.1249
14.553021 98.772 -143.4885
14.658478 98.766 -143.8502
14.764700 98.759 -144.2098
14.871691 98.752 -144.5676
14.979457 98.746 -144.9241
15.088005 98.740 -145.2800
15.197339 98.735 -145.6360
15.307465 98.731 -145.9932
15.418389 98.727 -146.3526
15.530117 98.724 -146.7148
15.642655 98.721 -147.0806
15.756008 98.718 -147.4500
15.870182 98.715 -147.8231
15.985184 98.711 -148.1996
16.101019 98.708 -148.5786
16.217694 98.703 -148.9592
16.335214 98.699 -149.3404
16.453586 98.694 -149.7209
16.572815 98.688 -150.0997
16.692909 98.683 -150.4759
16.813872 98.678 -150.8488
16.935713 98.673 -151.2181
17.058436 98.669 -151.5839
17.182048 98.665 -151.9464
17.306556 98.662 -152.3062
17.431967 98.659 -152.6639
17.558286 98.656 -153.0203
17.685521 98.654 -153.3759
17.813677 98.653 -153.7312
17.942762 98.651 -154.0864
18.072783 98.649 -154.4415
18.203746 98.647 -154.7961
18.335658 98.645 -155.1498
18.468526 98.642 -155.5020
18.602356 98.640 -155.8521
18.737156 98.637 -156.1997
18.872934 98.634 -156.5444
19.009695 98.631 -156.8864
19.147447 98.629 -157.2256
19.286197 98.627 -157.5628
19.425953 98.624 -157.8984
19.566721 98.622 -158.2329
19.708510 98.620 -158.5671
19.851326 98.617 -158.9011
19.995177 98.614 -159.2352
20.140070 98.610 -159.5693
20.286013 98.606 -159.9030
20.433014 98.602 -160.2357
20.581080 98.596 -160.5671
20.730219 98.590 -160.8967
20.880439 98.584 -161.2243
21.031747 98.578 -161.5499
21.184152 98.571 -161.8740
21.337661 98.565 -162.1972
21.492282 98.559 -162.5202
21.648024 98.553 -162.8439
21.804895 98.548 -163.1690
21.962902 98.542 -163.4962
22.122054 98.536 -163.8256
22.282360 98.529 -164.1574
22.443827 98.522 -164.4913
22.606464 98.515 -164.8267
22.770280 98.508 -165.1633
22.935283 98.500 -165.5005
23.101481 98.491 -165.8380
23.268884 98.483 -166.1758
23.437500 98.474 -166.5139
23.607338 98.465 -166.8525
23.778406 98.457 -167.1920
23.950714 98.448 -167.5327
24.124271 98.439 -167.8745
24.299086 98.430 -168.2177
24.475167 98.420 -168.5618
24.652524 98.411 -168.9067
24.831166 98.402 -169.2518
25.011103 98.392 -169.5969
25.192344 98.383 -169.9415
25.374898 98.373 -170.2853
25.558775 98.364 -170.6282
25.743984 98.354 -170.9698
25.930536 98.345 -171.3101
26.118439 98.336 -171.6488
26.307704 98.326 -171.9857
26.498341 98.317 -172.3207
26.690359 98.308 -172.6534
26.883768 98.299 -172.9843
27.078579 98.290 -173.3131
27.274801 98.281 -173.6404
27.472446 98.272 -173.9665
27.671522 98.263 -174.2918
27.872042 98.254 -174.6165
28.074014 98.245 -174.9406
28.277450 98.235 -175.2639
28.482360 98.225 -175.5859
28.688755 98.214 -175.9063
28.896645 98.203 -176.2248
29.106042 98.191 -176.5413
29.316957 98.180 -176.8560
29.529400 98.168 -177.1694
29.743382 98.157 -177.4824
29.958915 98.145 -177.7955
30.176009 98.133 -178.1094
30.394677 98.122 -178.4246
30.614929 98.110 -178.7411
30.836778 98.098 -179.0590
31.060234 98.086 -179.3780
31.285309 98.074 -179.6980
31.512015 98.061 179.9812
31.740364 98.048 179.6595
31.970368 98.036 179.3372
32.202039 98.023 179.0140
32.435388 98.010 178.6902
32.670428 97.997 178.3655
32.907171 97.984 178.0399
33.145630 97.971 177.7136
33.385817 97.958 177.3863
33.627745 97.945 177.0582
33.871425 97.932 176.7296
34.116871 97.919 176.4006
34.364096 97.906 176.0718
34.613113 97.893 175.7437
34.863934 97.880 175.4167
35.116572 97.866 175.0909
35.371041 97.853 174.7664
35.627354 97.839 174.4431
35.885525 97.825 174.1208
36.145566 97.811 173.7997
36.407492 97.796 173.4799
36.671316 97.782 173.1617
36.937051 97.766 172.8457
37.204712 97.751 172.5319
37.474313 97.736 172.2202
37.745867 97.720 171.9101
38.019389 97.704 171.6012
38.294893 97.688 171.2929
38.572394 97.672 170.9850
38.851905 97.656 170.6775
39.133442 97.639 170.3705
39.417019 97.622 170.0645
39.702651 97.605 169.7595
39.990353 97.588 169.4553
40.280140 97.571 169.1516
40.572026 97.554 168.8480
40.866028 97.537 168.5438
41.162160 97.521 168.2389
41.460438 97.504 167.9331
41.760877 97.486 167.6266
42.063494 97.469 167.3197
42.368303 97.452 167.0130
42.675322 97.434 166.7068
42.984565 97.416 166.4015
43.296048 97.397 166.0972
43.609789 97.379 165.7937
43.925804 97.360 165.4911
44.244108 97.341 165.1894
44.564719 97.322 164.8885
44.887654 97.303 164.5885
45.212928 97.284 164.2894
45.540560 97.264 163.9913
45.870565 97.245 163.6939
46.202962 97.225 163.3972
46.537768 97.205 163.1010
46.875000 97.185 162.8052
47.214676 97.165 162.5103
47.556813 97.144 162.2160
47.901429 97.124 161.9225
48.248542 97.104 161.6298
48.598171 97.084 161.3376
48.950334 97.064 161.0461
49.305048 97.044 160.7552
49.662333 97.023 160.4649
50.022206 97.003 160.1755
50.384688 96.982 159.8873
50.749796 96.962 159.6004
51.117550 96.941 159.3151
51.487969 96.920 159.0312
51.861072 96.899 158.7491
52.236879 96.878 158.4688
52.615409 96.857 158.1901
52.996681 96.836 157.9132
53.380717 96.815 157.6380
53.767536 96.794 157.3640
54.157158 96.773 157.0908
54.549603 96.753 156.8179
54.944892 96.733 156.5444
55.343045 96.713 156.2700
55.744084 96.693 155.9940
56.148028 96.674 155.7161
56.554900 96.654 155.4358
56.964720 96.635 155.1531
57.377510 96.615 154.8678
57.793291 96.595 154.5801
58.212085 96.575 154.2904
58.633914 96.554 153.9991
59.058799 96.533 153.7073
59.486764 96.511 153.4154
59.917829 96.488 153.1240
60.352019 96.465 152.8331
60.789354 96.441 152.5425
61.229859 96.417 152.2522
61.673556 96.392 151.9626
62.120468 96.366 151.6745
62.570618 96.340 151.3890
63.024031 96.313 151.1070
63.480729 96.286 150.8289
63.940736 96.259 150.5542
64.404077 96.233 150.2820
64.870776 96.206 150.0111
65.340856 96.180 149.7402
65.814343 96.154 149.4689
66.291261 96.128 149.1970
66.771635 96.101 148.9249
67.255489 96.075 148.6533
67.742850 96.048 148.3826
68.233743 96.021 148.1134
68.728193 95.993 147.8459
69.226226 95.966 147.5802
69.727867 95.938 147.3160
70.233144 95.911 147.0529
70.742083 95.883 146.7901
71.254709 95.855 146.5276
71.771050 95.828 146.2658
72.291132 95.800 146.0054
72.814984 95.772 145.7463
73.342631 95.745 145.4883
73.874102 95.718 145.2305
74.409424 95.691 144.9725
74.948626 95.664 144.7147
75.491734 95.637 144.4575
76.038779 95.610 144.2009
76.589787 95.584 143.9443
77.144788 95.557 143.6868
77.703811 95.531 143.4276
78.266885 95.505 143.1661
78.834039 95.479 142.9014
79.405303 95.453 142.6323
79.980706 95.427 142.3580
80.560280 95.400 142.0775
81.144053 95.373 141.7906
81.732056 95.345 141.4978
82.324320 95.316 141.2004
82.920876 95.286 140.9005
83.521755 95.254 140.6004
84.126988 95.220 140.3027
84.736607 95.186 140.0101
85.350643 95.150 139.7249
85.969129 95.114 139.4483
86.592097 95.078 139.1809
87.219579 95.041 138.9222
87.851608 95.005 138.6710
88.488217 94.968 138.4258
89.129439 94.933 138.1853
89.775308 94.897 137.9484
90.425856 94.862 137.7142
91.081119 94.828 137.4818
91.741131 94.794 137.2505
92.405925 94.760 137.0196
93.075536 94.727 136.7886
93.750000 94.693 136.5570
94.429351 94.661 136.3248
95.113625 94.627 136.0927
95.802858 94.594 135.8613
96.497085 94.561 135.6315
97.196342 94.527 135.4037
97.900667 94.493 135.1780
98.610096 94.459 134.9548
99.324665 94.424 134.7344
100.044413 94.389 134.5173
100.769376 94.354 134.3038
101.499592 94.320 134.0936
102.235100 94.285 133.8864
102.975938 94.252 133.6805
103.722144 94.219 133.4748
104.473757 94.186 133.2678
105.230817 94.154 133.0584
105.993363 94.122 132.8460
106.761435 94.090 132.6298
107.535072 94.059 132.4090
108.314315 94.027 132.1830
109.099206 93.994 131.9514
109.889783 93.961 131.7137
110.686090 93.928 131.4705
111.488167 93.893 131.2228
112.296056 93.857 130.9727
113.109800 93.820 130.7230
113.929440 93.781 130.4778
114.755020 93.741 130.2418
115.586582 93.698 130.0200
116.424170 93.655 129.8164
117.267827 93.611 129.6331
118.117598 93.568 129.4680
118.973527 93.526 129.3145
119.835658 93.486 129.1626
120.704037 93.449 129.0036
121.578708 93.412 128.8343
122.459718 93.376 128.6558
123.347111 93.341 128.4707
124.240935 93.306 128.2811
125.141236 93.272 128.0889
126.048061 93.238 127.8954
126.961458 93.204 127.7018
127.881473 93.170 127.5087
128.808154 93.136 127.3160
129.741551 93.102 127.1228
130.681712 93.068 126.9279
131.628686 93.034 126.7302
132.582521 92.999 126.5299
133.543269 92.964 126.3281
134.510979 92.928 126.1265
135.485701 92.891 125.9265
136.467486 92.854 125.7291
137.456386 92.817 125.5341
138.452451 92.780 125.3411
139.455735 92.742 125.1501
140.466288 92.704 124.9608
141.484165 92.666 124.7731
142.509418 92.628 124.5861
143.542100 92.590 124.3990
144.582265 92.552 124.2115
145.629968 92.514 124.0239
146.685262 92.475 123.8366
147.748204 92.436 123.6500
148.818849 92.396 123.4649
149.897251 92.355 123.2827
150.983469 92.313 123.1059
152.077557 92.271 122.9374
153.179574 92.228 122.7797
154.289576 92.186 122.6327
155.407622 92.146 122.4941
156.533770 92.106 122.3591
157.668078 92.069 122.2220
158.810606 92.032 122.0778
159.961413 91.996 121.9238
161.120559 91.960 121.7596
162.288105 91.923 121.5870
163.464112 91.886 121.4084
164.648640 91.847 121.2269
165.841752 91.807 121.0456
167.043510 91.766 120.8679
168.253976 91.724 120.6970
169.473213 91.681 120.5353
170.701286 91.639 120.3830
171.938258 91.598 120.2379
173.184194 91.557 120.0969
174.439158 91.518 119.9565
175.703216 91.479 119.8145
176.976434 91.441 119.6699
178.258878 91.404 119.5228
179.550615 91.367 119.3734
180.851713 91.329 119.2220
182.162239 91.292 119.0682
183.482262 91.254 118.9116
184.811850 91.216 118.7522
186.151073 91.179 118.5904
187.500000 91.141 118.4264
188.858702 91.105 118.2609
190.227250 91.068 118.0958
191.605715 91.032 117.9330
192.994169 90.995 117.7742
194.392685 90.957 117.6202
195.801334 90.920 117.4712
197.220191 90.881 117.3270
198.649330 90.843 117.1879
200.088825 90.806 117.0549
201.538751 90.769 116.9277
202.999184 90.732 116.8044
204.470200 90.698 116.6810
205.951875 90.664 116.5532
207.444287 90.631 116.4176
208.947514 90.598 116.2734
210.461634 90.564 116.1227
211.986726 90.528 115.9692
213.522869 90.490 115.8177
215.070144 90.450 115.6737
216.628631 90.409 115.5416
218.198411 90.368 115.4236
219.779567 90.328 115.3179
221.372180 90.289 115.2195
222.976334 90.252 115.1215
224.592112 90.217 115.0189
226.219600 90.182 114.9095
227.858880 90.147 114.7937
229.510039 90.112 114.6731
231.173164 90.077 114.5496
232.848340 90.043 114.4246
234.535655 90.008 114.2985
236.235197 89.973 114.1707
237.947054 89.938 114.0403
239.671317 89.902 113.9074
241.408074 89.866 113.7727
243.157416 89.829 113.6381
244.919435 89.791 113.5064
246.694223 89.752 113.3813
248.481871 89.712 113.2668
250.282473 89.673 113.1660
252.096123 89.634 113.0805
253.922915 89.598 113.0087
255.762945 89.563 112.9443
257.616309 89.532 112.8776
259.483103 89.503 112.7986
261.363424 89.475 112.7025
263.257372 89.447 112.5912
265.165043 89.418 112.4718
267.086538 89.387 112.3522
269.021957 89.355 112.2388
270.971401 89.323 112.1353
272.934972 89.291 112.0419
274.912771 89.260 111.9564
276.904902 89.230 111.8757
278.911469 89.202 111.7971
280.932577 89.176 111.7184
282.968330 89.152 111.6368
285.018835 89.130 111.5471
287.084199 89.110 111.4429
289.164530 89.090 111.3184
291.259935 89.069 111.1725
293.370525 89.046 111.0108
295.496408 89.020 110.8433
297.637697 88.991 110.6797
299.794503 88.961 110.5259
301.966937 88.929 110.3837
304.155114 88.897 110.2518
306.359147 88.865 110.1275
308.579152 88.833 110.0074
310.815244 88.802 109.8885
313.067539 88.770 109.7692
315.336156 88.738 109.6506
317.621211 88.705 109.5361
319.922826 88.672 109.4300
322.241118 88.639 109.3347
324.576210 88.606 109.2493
326.928223 88.574 109.1711
329.297280 88.544 109.0963
331.683504 88.516 109.0209
334.087019 88.488 108.9421
336.507952 88.461 108.8577
338.946427 88.434 108.7678
341.402572 88.406 108.6740
343.876516 88.378 108.5795
346.368387 88.350 108.4872
348.878315 88.321 108.3992
351.406431 88.292 108.3157
353.952867 88.263 108.2360
356.517756 88.235 108.1589
359.101230 88.207 108.0830
361.703426 88.179 108.0076
364.324478 88.152 107.9324
366.964523 88.125 107.8579
369.623699 88.098 107.7847
372.302145 88.071 107.7136
375.000000 88.045 107.6452
377.717405 88.020 107.5794
380.454501 87.995 107.5157
383.211431 87.970 107.4536
385.988339 87.945 107.3925
388.785369 87.921 107.3323
391.602668 87.898 107.2736
394.440383 87.874 107.2170
397.298660 87.852 107.1629
400.177650 87.830 107.1104
403.077502 87.808 107.0579
405.998368 87.787 107.0036
408.940400 87.766 106.9465
411.903750 87.745 106.8882
414.888575 87.724 106.8322
417.895028 87.702 106.7820
420.923268 87.680 106.7407
423.973452 87.660 106.7089
427.045738 87.640 106.6850
430.140287 87.623 106.6646
433.257261 87.607 106.6422
436.396822 87.593 106.6146
439.559133 87.581 106.5817
442.744360 87.569 106.5438
445.952668 87.559 106.4998
449.184225 87.550 106.4452
452.439199 87.542 106.3746
455.717760 87.532 106.2849
459.020079 87.521 106.1797
462.346327 87.507 106.0695
465.696680 87.490 105.9656
469.071310 87.471 105.8750
472.470394 87.452 105.7997
475.894109 87.433 105.7370
479.342634 87.415 105.6816
482.816148 87.397 105.6279
486.314833 87.379 105.5736
489.838871 87.361 105.5231
493.388445 87.342 105.4843
496.963741 87.324 105.4612
500.564945 87.307 105.4506
504.192245 87.292 105.4445
507.845830 87.279 105.4353
511.525890 87.267 105.4194
515.232618 87.254 105.3976
518.966206 87.242 105.3737
522.726849 87.229 105.3527
526.514743 87.215 105.3397
530.330086 87.203 105.3367
534.173076 87.191 105.3413
538.043915 87.181 105.3488
541.942803 87.173 105.3565
545.869944 87.164 105.3652
549.825542 87.157 105.3752
553.809805 87.151 105.3851
557.822939 87.146 105.3919
561.865154 87.142 105.3940
565.936660 87.137 105.3923
570.037671 87.132 105.3898
574.168399 87.127 105.3898
578.329060 87.121 105.3938
582.519870 87.115 105.4012
586.741049 87.109 105.4120
590.992817 87.103 105.4284
595.275394 87.098 105.4537
599.589005 87.093 105.4880
603.933874 87.089 105.5274
608.310228 87.086 105.5685
612.718295 87.084 105.6100
617.158304 87.081 105.6548
621.630488 87.078 105.7084
626.135079 87.075 105.7771
630.672311 87.073 105.8629
635.242423 87.073 105.9617
639.845651 87.076 106.0672
644.482237 87.082 106.1774
649.152421 87.089 106.2928
653.856447 87.100 106.4117
658.594560 87.114 106.5266
663.367008 87.131 106.6265
668.174039 87.150 106.7036
673.015903 87.169 106.7586
677.892854 87.186 106.7997
682.805145 87.201 106.8359
687.753032 87.214 106.8739
692.736774 87.226 106.9192
697.756631 87.238 106.9763
702.812863 87.250 107.0466
707.905735 87.263 107.1276
713.035511 87.277 107.2145
718.202461 87.292 107.3039
723.406852 87.308 107.3950
728.648956 87.325 107.4886
733.929047 87.342 107.5860
739.247399 87.360 107.6883
744.604290 87.379 107.7961
750.000000 87.399 107.9096
755.434809 87.419 108.0286
760.909001 87.441 108.1527
766.422861 87.463 108.2820
771.976677 87.487 108.4166
777.570739 87.512 108.5562
783.205337 87.539 108.7006
788.880766 87.567 108.8511
794.597321 87.596 109.0097
800.355301 87.628 109.1784
806.155005 87.662 109.3554
811.996736 87.701 109.5343
817.880799 87.744 109.7058
823.807501 87.791 109.8602
829.777150 87.841 109.9893
835.790057 87.891 110.0911
841.846536 87.940 110.1725
847.946903 87.987 110.2437
854.091476 88.034 110.3130
860.280575 88.079 110.3843
866.514523 88.124 110.4606
872.793644 88.168 110.5447
879.118267 88.214 110.6364
885.488720 88.261 110.7307
891.905336 88.310 110.8237
898.368450 88.360 110.9150
904.878398 88.411 111.0068
911.435520 88.464 111.1010
918.040157 88.518 111.1959
924.692655 88.575 111.2887
931.393359 88.634 111.3757
938.142619 88.695 111.4531
944.940787 88.758 111.5190
951.788218 88.821 111.5745
958.685268 88.885 111.6222
965.632296 88.949 111.6650
972.629666 89.015 111.7054
979.677741 89.081 111.7438
986.776890 89.148 111.7795
993.927482 89.215 111.8132
1001.129891 89.284 111.8487
1008.384491 89.354 111.8894
1015.691660 89.426 111.9341
1023.051781 89.502 111.9779
1030.465236 89.582 112.0135
1037.932411 89.666 112.0301
1045.453698 89.753 112.0156
1053.029486 89.841 111.9648
1060.660172 89.928 111.8813
1068.346153 90.013 111.7734
1076.087829 90.096 111.6507
1083.885605 90.177 111.5199
1091.739887 90.257 111.3834
1099.651084 90.337 111.2413
1107.619609 90.415 111.0942
1115.645878 90.492 110.9430
1123.730308 90.569 110.7888
1131.873321 90.645 110.6329
1140.075341 90.720 110.4765
1148.336797 90.795 110.3204
1156.658119 90.870 110.1658
1165.039741 90.945 110.0142
1173.482099 91.021 109.8671
1181.985634 91.099 109.7244
1190.550789 91.179 109.5806
1199.178011 91.263 109.4254
1207.867749 91.348 109.2479
1216.620457 91.434 109.0432
1225.436590 91.518 108.8149
1234.316609 91.600 108.5718
1243.260976 91.680 108.3227
1252.270157 91.757 108.0756
1261.344623 91.832 107.8352
1270.484846 91.907 107.6030
1279.691303 91.982 107.3802
1288.964474 92.058 107.1678
1298.304842 92.134 106.9639
1307.712894 92.214 106.7643
1317.189120 92.295 106.5630
1326.734016 92.380 106.3547
1336.348077 92.467 106.1363
1346.031806 92.557 105.9057
1355.785708 92.651 105.6617
1365.610290 92.747 105.4028
1375.506065 92.845 105.1288
1385.473549 92.947 104.8406
1395.513261 93.051 104.5366
1405.625726 93.157 104.2106
1415.811469 93.265 103.8527
1426.071023 93.373 103.4526
1436.404921 93.478 103.0071
1446.813703 93.579 102.5224
1457.297912 93.673 102.0110
1467.858093 93.761 101.4857
1478.494798 93.841 100.9573
1489.208581 93.914 100.4344
1500.000000 93.981 99.9244
1510.869618 94.041 99.4336
1521.818002 94.094 98.9666
1532.845723 94.142 98.5264
1543.953355 94.185 98.1147
1555.141477 94.225 97.7314
1566.410674 94.265 97.3714
1577.761531 94.307 97.0226
1589.194642 94.350 96.6701
1600.710601 94.395 96.3030
1612.310010 94.439 95.9188
1623.993473 94.482 95.5211
1635.761599 94.523 95.1157
1647.615002 94.562 94.7079
1659.554299 94.600 94.3022
1671.580114 94.637 93.9020
1683.693072 94.674 93.5082
1695.893807 94.710 93.1194
1708.182952 94.746 92.7333
1720.561150 94.780 92.3499
1733.029045 94.813 91.9719
1745.587288 94.843 91.6041
1758.236533 94.873 91.2521
1770.977440 94.902 90.9206
1783.810673 94.933 90.6082
1796.736900 94.967 90.3051
1809.756796 95.006 89.9972
1822.871040 95.047 89.6730
1836.080315 95.090 89.3282
1849.385310 95.133 88.9633
1862.786718 95.176 88.5814
1876.285239 95.220 88.1868
1889.881575 95.263 87.7852
1903.576436 95.309 87.3824
1917.370535 95.357 86.9838
1931.264593 95.410 86.5927
1945.259332 95.468 86.2076
1959.355483 95.533 85.8202
1973.553781 95.602 85.4174
1987.854965 95.675 84.9888
2002.259781 95.749 84.5309
2016.768981 95.822 84.0455
2031.383320 95.894 83.5369
2046.103561 95.963 83.0103
2060.930471 96.031 82.4701
2075.864823 96.096 81.9186
2090.907395 96.159 81.3563
2106.058972 96.218 80.7850
2121.320344 96.275 80.2098
2136.692305 96.327 79.6379
2152.175658 96.377 79.0770
2167.771210 96.426 78.5295
2183.479774 96.475 77.9895
2199.302169 96.525 77.4458
2215.239219 96.575 76.8892
2231.291755 96.624 76.3149
2247.460615 96.672 75.7225
2263.746641 96.717 75.1152
2280.150683 96.760 74.4990
2296.673595 96.801 73.8817
2313.316238 96.840 73.2695
2330.079481 96.879 72.6639
2346.964198 96.920 72.0582
2363.971268 96.962 71.4408
2381.101578 97.004 70.8021
2398.356022 97.046 70.1371
2415.735498 97.086 69.4456
2433.240913 97.124 68.7302
2450.873180 97.158 67.9943
2468.633217 97.188 67.2407
2486.521951 97.214 66.4731
2504.540314 97.236 65.6973
2522.689246 97.253 64.9228
2540.969692 97.266 64.1586
2559.382606 97.277 63.4083
2577.928947 97.287 62.6671
2596.609683 97.296 61.9274
2615.425787 97.304 61.1829
2634.378241 97.310 60.4310
2653.468031 97.313 59.6734
2672.696154 97.312 58.9166
2692.063613 97.308 58.1694
2711.571415 97.302 57.4379
2731.220579 97.295 56.7211
2751.012130 97.289 56.0111
2770.947098 97.283 55.2990
2791.026522 97.276 54.5785
2811.251451 97.267 53.8470
2831.622938 97.256 53.1044
2852.142045 97.242 52.3517
2872.809842 97.224 51.5920
2893.627406 97.201 50.8324
2914.595823 97.173 50.0836
2935.716186 97.141 49.3555
2956.989596 97.107 48.6514
2978.417161 97.070 47.9686
3000.000000 97.033 47.3019
3021.739237 96.993 46.6479
3043.636005 96.951 46.0078
3065.691446 96.907 45.3878
3087.906710 96.860 44.7963
3110.282955 96.813 44.2380
3132.821347 96.766 43.7101
3155.523062 96.720 43.2050
3178.389283 96.676 42.7141
3201.421202 96.633 42.2310
3224.620020 96.590 41.7514
3247.986946 96.547 41.2728
3271.523198 96.501 40.7969
3295.230004 96.454 40.3313
3319.108599 96.404 39.8864
3343.160228 96.353 39.4689
3367.386145 96.303 39.0789
3391.787613 96.253 38.7131
3416.365904 96.204 38.3684
3441.122300 96.156 38.0460
3466.058091 96.109 37.7521
3491.174576 96.064 37.4932
3516.473066 96.022 37.2699
3541.954880 95.985 37.0753
3567.621345 95.953 36.8986
3593.473800 95.926 36.7276
3619.513592 95.905 36.5513
3645.742080 95.887 36.3610
3672.160630 95.871 36.1547
3698.770620 95.856 35.9370
3725.573436 95.843 35.7134
3752.570477 95.830 35.4850
3779.763150 95.818 35.2485
3807.152872 95.807 35.0005
3834.741071 95.795 34.7421
3862.529185 95.781 34.4797
3890.518664 95.767 34.2198
3918.710966 95.753 33.9630
3947.107561 95.742 33.7033
3975.709929 95.733 33.4308
4004.519563 95.728 33.1340
4033.537962 95.724 32.8024
4062.766641 95.719 32.4323
4092.207123 95.714 32.0275
4121.860942 95.706 31.5938
4151.729646 95.695 31.1343
4181.814790 95.681 30.6497
4212.117944 95.663 30.1426
4242.640687 95.640 29.6214
4273.384610 95.611 29.0981
4304.351317 95.577 28.5812
4335.542421 95.540 28.0730
4366.959549 95.501 27.5696
4398.604338 95.460 27.0623
4430.478438 95.416 26.5427
4462.583511 95.369 26.0081
4494.921231 95.318 25.4622
4527.493283 95.263 24.9097
4560.301365 95.202 24.3531
4593.347189 95.136 23.7954
4626.632476 95.063 23.2446
4660.158962 94.984 22.7138
4693.928395 94.898 22.2159
4727.942535 94.808 21.7582
4762.203156 94.716 21.3409
4796.712043 94.623 20.9575
4831.470996 94.530 20.5994
4866.481826 94.436 20.2620
4901.746360 94.341 19.9445
4937.266434 94.244 19.6458
4973.043902 94.146 19.3646
5009.080628 94.045 19.1029
5045.378492 93.940 18.8696
5081.939384 93.832 18.6768
5118.765212 93.721 18.5339
5155.857894 93.610 18.4442
5193.219366 93.500 18.4030
5230.851574 93.392 18.4021
5268.756481 93.285 18.4355
5306.936062 93.181 18.4988
5345.392309 93.079 18.5865
5384.127225 92.977 18.6938
5423.142830 92.875 18.8217
5462.441159 92.772 18.9782
5502.024259 92.667 19.1733
5541.894195 92.563 19.4141
5582.053045 92.461 19.6999
5622.502902 92.363 20.0244
5663.245876 92.270 20.3807
5704.284090 92.182 20.7615
5745.619684 92.099 21.1581
5787.254813 92.021 21.5632
5829.191647 91.947 21.9759
5871.432373 91.876 22.4021
5913.979192 91.808 22.8504
5956.834323 91.743 23.3265
6000.000000 91.685 23.8300
6043.478473 91.632 24.3567
6087.272010 91.588 24.9002
6131.382892 91.551 25.4511
6175.813420 91.521 25.9991
6220.565910 91.499 26.5383
6265.642695 91.482 27.0690
6311.046124 91.470 27.5961
6356.778566 91.464 28.1238
6402.842404 91.463 28.6531
6449.240040 91.469 29.1826
6495.973891 91.483 29.7081
6543.046396 91.504 30.2225
6590.460007 91.533 30.7191
6638.217197 91.568 31.1956
6686.320456 91.610 31.6549
6734.772290 91.659 32.1019
6783.575226 91.715 32.5388
6832.731809 91.779 32.9645
6882.244600 91.853 33.3737
6932.116181 91.935 33.7557
6982.349153 92.027 34.0981
7032.946133 92.128 34.3909
7083.909760 92.238 34.6277
7135.242690 92.359 34.8036
7186.947600 92.492 34.9115
7239.027185 92.637 34.9405
7291.484160 92.796 34.8735
7344.321260 92.969 34.6865
7397.541239 93.155 34.3519
7451.146872 93.352 33.8451
7505.140954 93.558 33.1457
7559.526299 93.768 32.2369
7614.305743 93.979 31.1046
7669.482141 94.189 29.7359
7725.058371 94.393 28.1169
7781.037328 94.584 26.2361
7837.421932 94.757 24.0906
7894.215122 94.903 21.6911
7951.419859 95.017 19.0609
8009.039125 95.091 16.2341
8067.075924 95.123 13.2531
8125.533282 95.108 10.1625
8184.414245 95.044 7.0092
8243.721885 94.930 3.8438
8303.459292 94.763 0.7226
8363.629581 94.547 -2.2958
8424.235888 94.282 -5.1546
8485.281374 93.975 -7.8049
8546.769221 93.631 -10.2126
8608.702634 93.259 -12.3587
8671.084842 92.864 -14.2339
8733.919097 92.452 -15.8347
8797.208675 92.029 -17.1599
8860.956876 91.600 -18.2108
8925.167022 91.170 -18.9958
8989.842461 90.744 -19.5331
9054.986566 90.328 -19.8469
9120.602731 89.924 -19.9620
9186.694378 89.534 -19.8990
9253.264952 89.159 -19.6721
9320.317925 88.801 -19.2942
9387.856790 88.463 -18.7825
9455.885071 88.145 -18.1578
9524.406312 87.849 -17.4406
9593.424086 87.576 -16.6460
9662.941992 87.325 -15.7820
9732.963653 87.098 -14.8553
9803.492719 86.896 -13.8783
9874.532869 86.721 -12.8714
9946.087805 86.572 -11.8594
10018.161257 86.450 -10.8646
10090.756983 86.352 -9.9044
10163.878768 86.279 -8.9969
10237.530423 86.228 -8.1648
10311.715789 86.199 -7.4330
10386.438732 86.187 -6.8231
10461.703149 86.190 -6.3463
10537.512962 86.203 -6.0064
10613.872125 86.224 -5.8068
10690.784618 86.249 -5.7540
10768.254450 86.276 -5.8543
10846.285661 86.298 -6.1071
10924.882318 86.313 -6.5022
11004.048518 86.315 -7.0243
11083.788390 86.303 -7.6553
11164.106090 86.272 -8.3738
11245.005805 86.219 -9.1483
11326.491752 86.142 -9.9357
11408.568180 86.043 -10.6871
11491.239368 85.924 -11.3568
11574.509626 85.791 -11.9087
11658.383294 85.651 -12.3173
11742.864745 85.511 -12.5699
11827.958384 85.383 -12.6744
11913.668646 85.277 -12.6677
12000.000000 85.201 -12.6154
12086.956947 85.158 -12.6013
12174.544019 85.148 -12.7140
12262.765784 85.166 -13.0369
12351.626840 85.202 -13.6395
12441.131819 85.241 -14.5662
12531.285389 85.270 -15.8260
12622.092249 85.271 -17.3918
12713.557132 85.234 -19.2084
12805.684808 85.148 -21.2031
12898.480079 85.007 -23.2915
12991.947783 84.809 -25.3834
13086.092792 84.556 -27.3906
13180.920015 84.252 -29.2385
13276.434395 83.906 -30.8715
13372.640911 83.526 -32.2508
13469.544580 83.121 -33.3529
13567.150452 82.700 -34.1697
13665.463617 82.272 -34.7084
13764.489200 81.844 -34.9860
13864.232362 81.423 -35.0231
13964.698305 81.013 -34.8438
14065.892266 80.619 -34.4774
14167.819519 80.246 -33.9559
14270.485380 79.896 -33.3087
14373.895200 79.571 -32.5631
14478.054370 79.273 -31.7484
14582.968320 79.002 -30.8934
14688.642520 78.759 -30.0231
14795.082478 78.543 -29.1592
14902.293745 78.356 -28.3253
15010.281908 78.196 -27.5434
15119.052599 78.063 -26.8313
15228.611486 77.958 -26.2043
15338.964283 77.881 -25.6781
15450.116741 77.830 -25.2670
15562.074656 77.804 -24.9821
15674.843864 77.798 -24.8323
15788.430244 77.810 -24.8260
15902.839718 77.835 -24.9694
16018.078250 77.869 -25.2646
16134.151848 77.908 -25.7113
16251.066563 77.950 -26.3085
16368.828491 77.993 -27.0521
16487.443769 78.035 -27.9359
16606.918584 78.074 -28.9559
16727.259161 78.111 -30.1105
16848.471777 78.145 -31.3984
16970.562748 78.177 -32.8212
17093.538442 78.206 -34.3830
17217.405268 78.236 -36.0898
17342.169684 78.266 -37.9531
17467.838194 78.298 -39.9945
17594.417350 78.330 -42.2444
17721.913751 78.358 -44.7405
17850.334044 78.379 -47.5267
17979.684923 78.381 -50.6468
18109.973131 78.354 -54.1343
18241.205462 78.280 -58.0032
18373.388756 78.142 -62.2388
18506.529905 77.918 -66.7873
18640.635849 77.591 -71.5548
18775.713581 77.145 -76.4120
18911.770141 76.569 -81.2029
19048.812624 75.861 -85.7593
19186.848172 75.025 -89.9196
19325.883983 74.074 -93.5436
19465.927305 73.038 -96.5253
19606.985439 71.968 -98.8026
19749.065738 70.953 -100.3705
19892.175609 70.128 -101.2935
20036.322514 69.656 -101.6968
