* Measurement data measured by REW V5.31.3
* Source: EXCL: Microphone (USB Sound Device        ), MICROPHONE (Master Volume), R, volume: 0.390
* Format: 256k Log Swept Sine, 1 sweep at -12.0 dBFS with no timing reference
* Dated: May 26, 2025 11:17:15 PM
* REW Settings:
*  C-weighting compensation: Off
*  Target level: 75.0 dB
* Note: limeears 1dd L
* Measurement: L May 26
* Smoothing: 1/12 octave
* Frequency Step: 96 ppo
* Start Frequency: 0.36621094 Hz
*
* Freq(Hz) SPL(dB) Phase(degrees)
0.366211 91.986 171.9061
0.368865 91.982 171.8964
0.371538 91.976 171.8820
0.374230 91.970 171.8638
0.376942 91.962 171.8429
0.379673 91.954 171.8200
0.382424 91.946 171.7956
0.385196 91.937 171.7698
0.387987 91.928 171.7430
0.390798 91.919 171.7151
0.393630 91.910 171.6863
0.396483 91.901 171.6565
0.399356 91.891 171.6258
0.402250 91.882 171.5941
0.405165 91.873 171.5614
0.408101 91.863 171.5277
0.411058 91.854 171.4931
0.414037 91.844 171.4575
0.417037 91.835 171.4209
0.420059 91.825 171.3833
0.423103 91.815 171.3447
0.426169 91.805 171.3051
0.429257 91.795 171.2645
0.432368 91.785 171.2228
0.435501 91.775 171.1801
0.438656 91.765 171.1364
0.441835 91.755 171.0916
0.445037 91.745 171.0458
0.448262 91.734 170.9989
0.451510 91.724 170.9509
0.454782 91.713 170.9019
0.458077 91.703 170.8517
0.461397 91.692 170.8005
0.464740 91.681 170.7482
0.468108 91.671 170.6948
0.471500 91.660 170.6404
0.474917 91.649 170.5848
0.478358 91.638 170.5281
0.481825 91.627 170.4703
0.485316 91.615 170.4114
0.488833 91.604 170.3513
0.492375 91.593 170.2902
0.495943 91.581 170.2280
0.499537 91.570 170.1646
0.503157 91.558 170.1001
0.506803 91.546 170.0345
0.510475 91.535 169.9678
0.514175 91.523 169.9000
0.517900 91.511 169.8311
0.521653 91.499 169.7610
0.525434 91.487 169.6899
0.529241 91.474 169.6177
0.533076 91.462 169.5443
0.536939 91.450 169.4699
0.540830 91.437 169.3944
0.544749 91.424 169.3178
0.548696 91.412 169.2402
0.552673 91.399 169.1614
0.556677 91.386 169.0817
0.560711 91.373 169.0009
0.564774 91.360 168.9191
0.568867 91.347 168.8362
0.572989 91.334 168.7524
0.577141 91.320 168.6676
0.581324 91.307 168.5818
0.585536 91.293 168.4951
0.589779 91.280 168.4074
0.594053 91.266 168.3188
0.598358 91.252 168.2294
0.602694 91.238 168.1390
0.607061 91.224 168.0479
0.611460 91.210 167.9559
0.615891 91.196 167.8632
0.620354 91.182 167.7697
0.624849 91.167 167.6754
0.629377 91.153 167.5805
0.633938 91.138 167.4850
0.638532 91.123 167.3888
0.643159 91.108 167.2921
0.647819 91.093 167.1948
0.652514 91.078 167.0970
0.657242 91.063 166.9988
0.662005 91.048 166.9003
0.666802 91.032 166.8013
0.671634 91.017 166.7021
0.676501 91.001 166.6027
0.681403 90.986 166.5031
0.686341 90.970 166.4034
0.691314 90.954 166.3037
0.696324 90.937 166.2040
0.701370 90.921 166.1043
0.706452 90.904 166.0048
0.711571 90.887 165.9054
0.716728 90.870 165.8061
0.721921 90.852 165.7067
0.727153 90.832 165.6072
0.732422 90.811 165.5072
0.737729 90.789 165.4063
0.743075 90.765 165.3041
0.748460 90.741 165.2003
0.753883 90.715 165.0947
0.759346 90.689 164.9870
0.764849 90.662 164.8772
0.770391 90.634 164.7652
0.775974 90.607 164.6510
0.781597 90.579 164.5345
0.787261 90.550 164.4157
0.792966 90.522 164.2947
0.798712 90.493 164.1714
0.804500 90.463 164.0459
0.810329 90.433 163.9181
0.816201 90.403 163.7881
0.822116 90.372 163.6559
0.828073 90.341 163.5215
0.834074 90.309 163.3849
0.840118 90.277 163.2461
0.846206 90.245 163.1053
0.852338 90.211 162.9623
0.858514 90.178 162.8173
0.864735 90.143 162.6703
0.871001 90.108 162.5213
0.877313 90.072 162.3704
0.883670 90.036 162.2176
0.890074 89.998 162.0630
0.896524 89.960 161.9066
0.903020 89.922 161.7485
0.909564 89.882 161.5888
0.916155 89.842 161.4276
0.922794 89.800 161.2648
0.929481 89.758 161.1008
0.936216 89.714 160.9354
0.943000 89.670 160.7689
0.949834 89.625 160.6013
0.956717 89.578 160.4328
0.963649 89.530 160.2635
0.970632 89.481 160.0936
0.977666 89.431 159.9231
0.984750 89.379 159.7523
0.991886 89.327 159.5814
0.999074 89.272 159.4104
1.006314 89.216 159.2398
1.013606 89.159 159.0695
1.020951 89.100 158.8999
1.028349 89.040 158.7313
1.035801 88.978 158.5638
1.043307 88.914 158.3977
1.050867 88.848 158.2334
1.058482 88.780 158.0710
1.066152 88.711 157.9108
1.073878 88.640 157.7531
1.081660 88.567 157.5979
1.089498 88.493 157.4452
1.097393 88.417 157.2949
1.105345 88.341 157.1465
1.113355 88.265 156.9997
1.121423 88.188 156.8542
1.129549 88.112 156.7095
1.137734 88.036 156.5656
1.145979 87.961 156.4224
1.154283 87.885 156.2797
1.162647 87.810 156.1377
1.171072 87.734 155.9963
1.179558 87.658 155.8557
1.188106 87.581 155.7158
1.196715 87.503 155.5768
1.205387 87.424 155.4387
1.214122 87.343 155.3017
1.222920 87.260 155.1658
1.231782 87.176 155.0313
1.240708 87.089 154.8983
1.249699 86.999 154.7668
1.258754 86.906 154.6371
1.267876 86.809 154.5094
1.277063 86.709 154.3838
1.286318 86.604 154.2607
1.295639 86.495 154.1402
1.305027 86.381 154.0225
1.314484 86.261 153.9081
1.324009 86.135 153.7973
1.333604 86.003 153.6904
1.343268 85.864 153.5877
1.353002 85.718 153.4898
1.362806 85.563 153.3971
1.372681 85.401 153.3101
1.382628 85.229 153.2295
1.392647 85.048 153.1559
1.402739 84.856 153.0898
1.412904 84.654 153.0322
1.423142 84.440 152.9838
1.433455 84.212 152.9454
1.443843 83.970 152.9178
1.454305 83.712 152.9019
1.464844 83.434 152.8984
1.475459 83.134 152.9082
1.486150 82.810 152.9323
1.496920 82.458 152.9716
1.507767 82.079 153.0277
1.518693 81.672 153.1024
1.529698 81.237 153.1977
1.540783 80.776 153.3162
1.551948 80.291 153.4608
1.563194 79.782 153.6350
1.574521 79.254 153.8428
1.585931 78.707 154.0889
1.597423 78.144 154.3789
1.608999 77.568 154.7192
1.620658 76.983 155.1176
1.632402 76.390 155.5833
1.644232 75.794 156.1275
1.656146 75.199 156.7634
1.668147 74.607 157.5075
1.680235 74.023 158.3796
1.692411 73.452 159.4044
1.704675 72.898 160.6123
1.717028 72.366 162.0417
1.729470 71.862 163.7407
1.742003 71.391 165.7698
1.754626 70.961 168.2060
1.767341 70.577 171.1460
1.780147 70.247 174.7098
1.793047 69.978 179.0423
1.806040 69.776 -175.6934
1.819128 69.648 -169.3368
1.832310 69.598 -161.7817
1.845587 69.629 -153.0618
1.858961 69.740 -143.4462
1.872432 69.931 -133.4621
1.886001 70.197 -123.7654
1.899667 70.534 -114.9150
1.913433 70.936 -107.2200
1.927299 71.397 -100.7415
1.941265 71.911 -95.3842
1.955332 72.470 -90.9882
1.969501 73.068 -87.3858
1.983773 73.699 -84.4276
1.998148 74.355 -81.9893
2.012627 75.029 -79.9712
2.027212 75.716 -78.2946
2.041902 76.407 -76.8976
2.056698 77.097 -75.7311
2.071602 77.779 -74.7567
2.086614 78.446 -73.9436
2.101734 79.093 -73.2671
2.116964 79.713 -72.7075
2.132304 80.303 -72.2487
2.147756 80.859 -71.8777
2.163320 81.378 -71.5840
2.178996 81.860 -71.3588
2.194786 82.306 -71.1951
2.210690 82.722 -71.0869
2.226710 83.110 -71.0288
2.242845 83.476 -71.0160
2.259098 83.822 -71.0439
2.275468 84.151 -71.1080
2.291957 84.465 -71.2043
2.308566 84.765 -71.3289
2.325295 85.051 -71.4786
2.342145 85.326 -71.6501
2.359117 85.589 -71.8409
2.376212 85.843 -72.0484
2.393431 86.088 -72.2704
2.410775 86.325 -72.5052
2.428244 86.555 -72.7508
2.445840 86.780 -73.0060
2.463564 87.001 -73.2695
2.481416 87.217 -73.5405
2.499397 87.431 -73.8183
2.517509 87.643 -74.1029
2.535752 87.853 -74.3948
2.554127 88.060 -74.6948
2.572635 88.263 -75.0044
2.591277 88.461 -75.3250
2.610055 88.654 -75.6574
2.628968 88.839 -76.0018
2.648019 89.018 -76.3577
2.667208 89.189 -76.7240
2.686535 89.353 -77.0992
2.706003 89.511 -77.4818
2.725612 89.663 -77.8702
2.745363 89.809 -78.2627
2.765257 89.951 -78.6578
2.785295 90.088 -79.0539
2.805478 90.221 -79.4497
2.825808 90.351 -79.8441
2.846285 90.479 -80.2360
2.866910 90.604 -80.6249
2.887685 90.728 -81.0109
2.908611 90.850 -81.3947
2.929688 90.969 -81.7774
2.950917 91.086 -82.1611
2.972301 91.200 -82.5474
2.993839 91.310 -82.9374
3.015534 91.416 -83.3316
3.037386 91.518 -83.7296
3.059396 91.616 -84.1305
3.081565 91.711 -84.5331
3.103896 91.802 -84.9362
3.126388 91.890 -85.3380
3.149043 91.976 -85.7372
3.171862 92.058 -86.1323
3.194847 92.139 -86.5217
3.217998 92.217 -86.9044
3.241317 92.294 -87.2794
3.264805 92.369 -87.6467
3.288463 92.442 -88.0065
3.312293 92.513 -88.3597
3.336295 92.581 -88.7077
3.360471 92.647 -89.0516
3.384822 92.711 -89.3922
3.409350 92.771 -89.7297
3.434056 92.829 -90.0641
3.458940 92.885 -90.3949
3.484005 92.939 -90.7216
3.509252 92.990 -91.0434
3.534681 93.041 -91.3595
3.560295 93.090 -91.6691
3.586094 93.137 -91.9713
3.612081 93.184 -92.2657
3.638255 93.231 -92.5516
3.664620 93.276 -92.8289
3.691175 93.320 -93.0979
3.717923 93.363 -93.3589
3.744864 93.404 -93.6125
3.772001 93.444 -93.8592
3.799335 93.483 -94.0997
3.826866 93.521 -94.3345
3.854597 93.558 -94.5640
3.882529 93.594 -94.7888
3.910664 93.630 -95.0091
3.939002 93.666 -95.2251
3.967546 93.702 -95.4370
3.996296 93.738 -95.6445
4.025255 93.775 -95.8474
4.054423 93.811 -96.0454
4.083804 93.848 -96.2383
4.113396 93.884 -96.4263
4.143204 93.921 -96.6100
4.173227 93.957 -96.7905
4.203468 93.994 -96.9690
4.233928 94.031 -97.1468
4.264609 94.067 -97.3254
4.295512 94.105 -97.5062
4.326639 94.142 -97.6900
4.357992 94.180 -97.8777
4.389572 94.219 -98.0697
4.421380 94.257 -98.2656
4.453419 94.297 -98.4654
4.485691 94.337 -98.6690
4.518196 94.377 -98.8765
4.550936 94.417 -99.0887
4.583914 94.458 -99.3062
4.617131 94.499 -99.5301
4.650589 94.539 -99.7615
4.684289 94.580 -100.0013
4.718233 94.620 -100.2504
4.752424 94.660 -100.5094
4.786862 94.699 -100.7786
4.821549 94.739 -101.0580
4.856488 94.777 -101.3472
4.891680 94.816 -101.6461
4.927127 94.854 -101.9541
4.962831 94.891 -102.2709
4.998794 94.928 -102.5963
5.035017 94.964 -102.9300
5.071503 94.998 -103.2722
5.108253 95.031 -103.6230
5.145270 95.063 -103.9828
5.182555 95.094 -104.3518
5.220110 95.123 -104.7299
5.257937 95.151 -105.1165
5.296038 95.178 -105.5104
5.334415 95.203 -105.9104
5.373071 95.227 -106.3152
5.412006 95.250 -106.7236
5.451224 95.271 -107.1349
5.490725 95.290 -107.5485
5.530514 95.308 -107.9645
5.570590 95.325 -108.3830
5.610957 95.340 -108.8038
5.651616 95.353 -109.2262
5.692570 95.366 -109.6492
5.733821 95.377 -110.0715
5.775370 95.388 -110.4917
5.817221 95.397 -110.9088
5.859375 95.406 -111.3219
5.901834 95.414 -111.7309
5.944602 95.422 -112.1358
5.987679 95.429 -112.5367
6.031068 95.436 -112.9339
6.074771 95.443 -113.3273
6.118792 95.450 -113.7168
6.163131 95.458 -114.1023
6.207792 95.466 -114.4833
6.252776 95.475 -114.8598
6.298086 95.485 -115.2318
6.343725 95.496 -115.6000
6.389694 95.508 -115.9653
6.435996 95.521 -116.3290
6.482634 95.536 -116.6926
6.529610 95.553 -117.0572
6.576926 95.571 -117.4237
6.624585 95.591 -117.7926
6.672590 95.613 -118.1644
6.720942 95.637 -118.5398
6.769645 95.662 -118.9200
6.818700 95.690 -119.3065
6.868111 95.718 -119.7011
6.917881 95.749 -120.1051
6.968010 95.780 -120.5195
7.018504 95.813 -120.9447
7.069362 95.848 -121.3810
7.120590 95.883 -121.8283
7.172189 95.919 -122.2869
7.224161 95.956 -122.7569
7.276511 95.992 -123.2386
7.329239 96.029 -123.7322
7.382350 96.066 -124.2377
7.435845 96.102 -124.7543
7.489729 96.137 -125.2809
7.544002 96.172 -125.8159
7.598669 96.206 -126.3576
7.653732 96.239 -126.9047
7.709194 96.270 -127.4561
7.765058 96.300 -128.0109
7.821327 96.328 -128.5674
7.878004 96.355 -129.1238
7.935091 96.380 -129.6773
7.992592 96.403 -130.2256
8.050510 96.425 -130.7666
8.108847 96.445 -131.2985
8.167607 96.464 -131.8202
8.226793 96.482 -132.3301
8.286408 96.498 -132.8264
8.346454 96.514 -133.3070
8.406936 96.529 -133.7704
8.467856 96.543 -134.2152
8.529218 96.558 -134.6408
8.591024 96.572 -135.0471
8.653278 96.588 -135.4339
8.715983 96.604 -135.8013
8.779143 96.621 -136.1494
8.842760 96.640 -136.4784
8.906839 96.661 -136.7892
8.971381 96.684 -137.0831
9.036392 96.709 -137.3621
9.101873 96.737 -137.6285
9.167829 96.767 -137.8845
9.234263 96.800 -138.1329
9.301178 96.835 -138.3768
9.368578 96.873 -138.6191
9.436467 96.913 -138.8622
9.504847 96.956 -139.1076
9.573723 97.000 -139.3567
9.643099 97.046 -139.6108
9.712976 97.094 -139.8713
9.783361 97.143 -140.1398
9.854255 97.192 -140.4178
9.925663 97.241 -140.7062
9.997588 97.290 -141.0055
10.070035 97.338 -141.3155
10.143007 97.386 -141.6356
10.216507 97.432 -141.9653
10.290540 97.476 -142.3037
10.365109 97.518 -142.6497
10.440219 97.557 -143.0018
10.515873 97.594 -143.3580
10.592076 97.629 -143.7166
10.668830 97.660 -144.0756
10.746141 97.689 -144.4333
10.824012 97.714 -144.7880
10.902447 97.737 -145.1374
10.981451 97.756 -145.4799
11.061027 97.774 -145.8139
11.141180 97.788 -146.1381
11.221913 97.800 -146.4514
11.303232 97.810 -146.7530
11.385140 97.819 -147.0421
11.467641 97.826 -147.3186
11.550741 97.831 -147.5826
11.634442 97.836 -147.8346
11.718750 97.840 -148.0753
11.803669 97.844 -148.3058
11.889203 97.847 -148.5273
11.975357 97.850 -148.7416
12.062136 97.854 -148.9507
12.149543 97.858 -149.1563
12.237583 97.862 -149.3607
12.326262 97.867 -149.5657
12.415583 97.872 -149.7736
12.505552 97.877 -149.9865
12.596172 97.882 -150.2060
12.687449 97.887 -150.4336
12.779387 97.892 -150.6707
12.871992 97.896 -150.9182
12.965268 97.900 -151.1766
13.059220 97.902 -151.4461
13.153852 97.903 -151.7264
13.249170 97.903 -152.0170
13.345179 97.901 -152.3168
13.441884 97.897 -152.6245
13.539289 97.891 -152.9384
13.637401 97.883 -153.2570
13.736223 97.874 -153.5781
13.835761 97.862 -153.9000
13.936021 97.850 -154.2208
14.037007 97.835 -154.5388
14.138725 97.820 -154.8526
14.241180 97.805 -155.1614
14.344377 97.790 -155.4645
14.448323 97.775 -155.7618
14.553021 97.760 -156.0540
14.658478 97.748 -156.3421
14.764700 97.737 -156.6275
14.871691 97.728 -156.9122
14.979457 97.721 -157.1986
15.088005 97.716 -157.4891
15.197339 97.715 -157.7861
15.307465 97.715 -158.0919
15.418389 97.718 -158.4087
15.530117 97.722 -158.7379
15.642655 97.728 -159.0807
15.756008 97.735 -159.4374
15.870182 97.743 -159.8076
15.985184 97.751 -160.1906
16.101019 97.759 -160.5845
16.217694 97.767 -160.9872
16.335214 97.774 -161.3965
16.453586 97.780 -161.8092
16.572815 97.785 -162.2227
16.692909 97.790 -162.6339
16.813872 97.794 -163.0403
16.935713 97.796 -163.4395
17.058436 97.799 -163.8296
17.182048 97.801 -164.2090
17.306556 97.803 -164.5767
17.431967 97.805 -164.9321
17.558286 97.808 -165.2749
17.685521 97.810 -165.6052
17.813677 97.814 -165.9232
17.942762 97.817 -166.2294
18.072783 97.821 -166.5240
18.203746 97.825 -166.8077
18.335658 97.830 -167.0807
18.468526 97.835 -167.3434
18.602356 97.840 -167.5962
18.737156 97.845 -167.8395
18.872934 97.850 -168.0737
19.009695 97.855 -168.2997
19.147447 97.861 -168.5182
19.286197 97.866 -168.7305
19.425953 97.871 -168.9377
19.566721 97.877 -169.1413
19.708510 97.882 -169.3428
19.851326 97.886 -169.5438
19.995177 97.891 -169.7455
20.140070 97.894 -169.9492
20.286013 97.897 -170.1556
20.433014 97.898 -170.3656
20.581080 97.898 -170.5794
20.730219 97.897 -170.7971
20.880439 97.894 -171.0187
21.031747 97.890 -171.2441
21.184152 97.884 -171.4731
21.337661 97.877 -171.7057
21.492282 97.868 -171.9420
21.648024 97.858 -172.1822
21.804895 97.847 -172.4268
21.962902 97.835 -172.6764
22.122054 97.822 -172.9314
22.282360 97.809 -173.1924
22.443827 97.795 -173.4597
22.606464 97.780 -173.7338
22.770280 97.764 -174.0143
22.935283 97.748 -174.3013
23.101481 97.732 -174.5941
23.268884 97.716 -174.8922
23.437500 97.699 -175.1946
23.607338 97.682 -175.5005
23.778406 97.666 -175.8091
23.950714 97.650 -176.1195
24.124271 97.634 -176.4312
24.299086 97.619 -176.7435
24.475167 97.605 -177.0558
24.652524 97.593 -177.3680
24.831166 97.581 -177.6794
25.011103 97.570 -177.9898
25.192344 97.561 -178.2986
25.374898 97.552 -178.6051
25.558775 97.545 -178.9088
25.743984 97.538 -179.2086
25.930536 97.532 -179.5037
26.118439 97.527 -179.7933
26.307704 97.522 179.9233
26.498341 97.518 179.6469
26.690359 97.514 179.3779
26.883768 97.511 179.1165
27.078579 97.508 178.8626
27.274801 97.504 178.6161
27.472446 97.501 178.3766
27.671522 97.497 178.1437
27.872042 97.493 177.9169
28.074014 97.488 177.6958
28.277450 97.483 177.4800
28.482360 97.476 177.2691
28.688755 97.468 177.0629
28.896645 97.459 176.8611
29.106042 97.448 176.6635
29.316957 97.436 176.4700
29.529400 97.422 176.2803
29.743382 97.408 176.0940
29.958915 97.392 175.9105
30.176009 97.375 175.7289
30.394677 97.358 175.5477
30.614929 97.340 175.3651
30.836778 97.322 175.1790
31.060234 97.304 174.9874
31.285309 97.285 174.7883
31.512015 97.266 174.5808
31.740364 97.247 174.3645
31.970368 97.227 174.1399
32.202039 97.206 173.9084
32.435388 97.185 173.6717
32.670428 97.164 173.4315
32.907171 97.143 173.1889
33.145630 97.122 172.9444
33.385817 97.101 172.6982
33.627745 97.081 172.4500
33.871425 97.062 172.1994
34.116871 97.044 171.9469
34.364096 97.026 171.6936
34.613113 97.008 171.4410
34.863934 96.990 171.1910
35.116572 96.973 170.9452
35.371041 96.956 170.7044
35.627354 96.939 170.4689
35.885525 96.923 170.2380
36.145566 96.907 170.0109
36.407492 96.892 169.7871
36.671316 96.876 169.5666
36.937051 96.859 169.3498
37.204712 96.842 169.1377
37.474313 96.824 168.9312
37.745867 96.805 168.7307
38.019389 96.786 168.5358
38.294893 96.766 168.3454
38.572394 96.747 168.1581
38.851905 96.727 167.9724
39.133442 96.706 167.7868
39.417019 96.685 167.6005
39.702651 96.664 167.4132
39.990353 96.642 167.2247
40.280140 96.619 167.0355
40.572026 96.596 166.8460
40.866028 96.572 166.6568
41.162160 96.549 166.4683
41.460438 96.525 166.2810
41.760877 96.501 166.0948
42.063494 96.477 165.9094
42.368303 96.453 165.7246
42.675322 96.430 165.5402
42.984565 96.406 165.3568
43.296048 96.382 165.1758
43.609789 96.358 164.9992
43.925804 96.334 164.8287
44.244108 96.310 164.6653
44.564719 96.287 164.5086
44.887654 96.264 164.3567
45.212928 96.242 164.2067
45.540560 96.220 164.0560
45.870565 96.199 163.9031
46.202962 96.177 163.7478
46.537768 96.155 163.5914
46.875000 96.132 163.4359
47.214676 96.108 163.2831
47.556813 96.084 163.1336
47.901429 96.059 162.9869
48.248542 96.035 162.8417
48.598171 96.010 162.6966
48.950334 95.985 162.5508
49.305048 95.959 162.4040
49.662333 95.933 162.2568
50.022206 95.907 162.1100
50.384688 95.880 161.9639
50.749796 95.852 161.8189
51.117550 95.824 161.6756
51.487969 95.796 161.5353
51.861072 95.766 161.3995
52.236879 95.737 161.2700
52.615409 95.707 161.1474
52.996681 95.678 161.0310
53.380717 95.650 160.9186
53.767536 95.623 160.8079
54.157158 95.597 160.6971
54.549603 95.571 160.5855
54.944892 95.545 160.4734
55.343045 95.520 160.3617
55.744084 95.495 160.2512
56.148028 95.471 160.1425
56.554900 95.446 160.0357
56.964720 95.422 159.9305
57.377510 95.399 159.8260
57.793291 95.375 159.7212
58.212085 95.351 159.6158
58.633914 95.327 159.5107
59.058799 95.302 159.4071
59.486764 95.276 159.3057
59.917829 95.250 159.2061
60.352019 95.223 159.1066
60.789354 95.196 159.0060
61.229859 95.168 158.9040
61.673556 95.139 158.8012
62.120468 95.109 158.6979
62.570618 95.079 158.5942
63.024031 95.048 158.4900
63.480729 95.018 158.3854
63.940736 94.987 158.2806
64.404077 94.957 158.1757
64.870776 94.926 158.0710
65.340856 94.896 157.9680
65.814343 94.867 157.8692
66.291261 94.837 157.7770
66.771635 94.808 157.6922
67.255489 94.780 157.6139
67.742850 94.753 157.5410
68.233743 94.726 157.4732
68.728193 94.700 157.4104
69.226226 94.674 157.3516
69.727867 94.648 157.2947
70.233144 94.622 157.2375
70.742083 94.596 157.1795
71.254709 94.569 157.1218
71.771050 94.541 157.0658
72.291132 94.512 157.0121
72.814984 94.484 156.9601
73.342631 94.455 156.9088
73.874102 94.426 156.8570
74.409424 94.397 156.8041
74.948626 94.369 156.7497
75.491734 94.340 156.6942
76.038779 94.311 156.6383
76.589787 94.283 156.5830
77.144788 94.255 156.5288
77.703811 94.227 156.4751
78.266885 94.200 156.4206
78.834039 94.173 156.3640
79.405303 94.147 156.3046
79.980706 94.122 156.2419
80.560280 94.097 156.1753
81.144053 94.071 156.1035
81.732056 94.045 156.0262
82.324320 94.018 155.9446
82.920876 93.990 155.8618
83.521755 93.959 155.7813
84.126988 93.927 155.7067
84.736607 93.894 155.6401
85.350643 93.859 155.5826
85.969129 93.823 155.5343
86.592097 93.787 155.4955
87.219579 93.750 155.4657
87.851608 93.714 155.4437
88.488217 93.677 155.4275
89.129439 93.641 155.4157
89.775308 93.606 155.4082
90.425856 93.570 155.4059
91.081119 93.535 155.4091
91.741131 93.501 155.4167
92.405925 93.469 155.4258
93.075536 93.437 155.4335
93.750000 93.406 155.4383
94.429351 93.376 155.4405
95.113625 93.345 155.4416
95.802858 93.315 155.4435
96.497085 93.284 155.4475
97.196342 93.253 155.4546
97.900667 93.222 155.4661
98.610096 93.190 155.4838
99.324665 93.157 155.5096
100.044413 93.123 155.5448
100.769376 93.090 155.5893
101.499592 93.056 155.6411
102.235100 93.023 155.6968
102.975938 92.991 155.7521
103.722144 92.960 155.8036
104.473757 92.929 155.8496
105.230817 92.899 155.8900
105.993363 92.869 155.9260
106.761435 92.840 155.9587
107.535072 92.812 155.9889
108.314315 92.783 156.0165
109.099206 92.755 156.0408
109.889783 92.727 156.0609
110.686090 92.697 156.0768
111.488167 92.666 156.0895
112.296056 92.634 156.1008
113.109800 92.599 156.1129
113.929440 92.563 156.1281
114.755020 92.525 156.1491
115.586582 92.486 156.1792
116.424170 92.446 156.2216
117.267827 92.407 156.2792
118.117598 92.368 156.3545
118.973527 92.330 156.4500
119.835658 92.295 156.5658
120.704037 92.263 156.6969
121.578708 92.235 156.8331
122.459718 92.209 156.9650
123.347111 92.184 157.0886
124.240935 92.160 157.2042
125.141236 92.135 157.3135
126.048061 92.110 157.4188
126.961458 92.083 157.5229
127.881473 92.056 157.6287
128.808154 92.030 157.7389
129.741551 92.003 157.8540
130.681712 91.978 157.9726
131.628686 91.954 158.0921
132.582521 91.932 158.2092
133.543269 91.910 158.3209
134.510979 91.890 158.4247
135.485701 91.871 158.5192
136.467486 91.852 158.6041
137.456386 91.834 158.6801
138.452451 91.817 158.7483
139.455735 91.800 158.8097
140.466288 91.784 158.8653
141.484165 91.767 158.9155
142.509418 91.750 158.9605
143.542100 91.732 159.0009
144.582265 91.712 159.0381
145.629968 91.690 159.0743
146.685262 91.666 159.1125
147.748204 91.641 159.1560
148.818849 91.613 159.2085
149.897251 91.583 159.2730
150.983469 91.552 159.3514
152.077557 91.520 159.4459
153.179574 91.487 159.5582
154.289576 91.455 159.6882
155.407622 91.423 159.8335
156.533770 91.393 159.9893
157.668078 91.365 160.1504
158.810606 91.338 160.3118
159.961413 91.312 160.4704
161.120559 91.286 160.6245
162.288105 91.259 160.7735
163.464112 91.231 160.9167
164.648640 91.201 161.0539
165.841752 91.170 161.1856
167.043510 91.137 161.3132
168.253976 91.104 161.4387
169.473213 91.073 161.5616
170.701286 91.044 161.6793
171.938258 91.019 161.7897
173.184194 90.998 161.8935
174.439158 90.980 161.9942
175.703216 90.964 162.0949
176.976434 90.949 162.1971
178.258878 90.935 162.2997
179.550615 90.921 162.4008
180.851713 90.906 162.4983
182.162239 90.891 162.5914
183.482262 90.876 162.6810
184.811850 90.860 162.7689
186.151073 90.842 162.8569
187.500000 90.824 162.9460
188.858702 90.804 163.0359
190.227250 90.781 163.1256
191.605715 90.758 163.2153
192.994169 90.732 163.3058
194.392685 90.706 163.3993
195.801334 90.678 163.4986
197.220191 90.650 163.6064
198.649330 90.620 163.7246
200.088825 90.591 163.8538
201.538751 90.561 163.9925
202.999184 90.532 164.1376
204.470200 90.504 164.2845
205.951875 90.478 164.4288
207.444287 90.452 164.5672
208.947514 90.425 164.6989
210.461634 90.399 164.8255
211.986726 90.371 164.9508
213.522869 90.342 165.0799
215.070144 90.312 165.2186
216.628631 90.282 165.3718
218.198411 90.253 165.5415
219.779567 90.226 165.7262
221.372180 90.201 165.9207
222.976334 90.179 166.1192
224.592112 90.158 166.3177
226.219600 90.139 166.5149
227.858880 90.121 166.7112
229.510039 90.104 166.9079
231.173164 90.087 167.1060
232.848340 90.072 167.3053
234.535655 90.058 167.5045
236.235197 90.044 167.7012
237.947054 90.031 167.8928
239.671317 90.019 168.0778
241.408074 90.006 168.2563
243.157416 89.994 168.4301
244.919435 89.980 168.6020
246.694223 89.966 168.7749
248.481871 89.952 168.9518
250.282473 89.937 169.1346
252.096123 89.923 169.3241
253.922915 89.909 169.5185
255.762945 89.897 169.7125
257.616309 89.887 169.8981
259.483103 89.878 170.0672
261.363424 89.869 170.2165
263.257372 89.858 170.3489
265.165043 89.845 170.4724
267.086538 89.830 170.5958
269.021957 89.813 170.7266
270.971401 89.795 170.8692
272.934972 89.777 171.0246
274.912771 89.758 171.1914
276.904902 89.741 171.3673
278.911469 89.725 171.5502
280.932577 89.710 171.7379
282.968330 89.698 171.9268
285.018835 89.687 172.1112
287.084199 89.678 172.2835
289.164530 89.670 172.4378
291.259935 89.662 172.5728
293.370525 89.651 172.6941
295.496408 89.638 172.8115
297.637697 89.623 172.9348
299.794503 89.605 173.0699
301.966937 89.587 173.2185
304.155114 89.569 173.3790
306.359147 89.551 173.5480
308.579152 89.534 173.7217
310.815244 89.517 173.8965
313.067539 89.500 174.0711
315.336156 89.484 174.2465
317.621211 89.467 174.4264
319.922826 89.450 174.6146
322.241118 89.433 174.8129
324.576210 89.418 175.0193
326.928223 89.404 175.2297
329.297280 89.391 175.4397
331.683504 89.379 175.6459
334.087019 89.369 175.8459
336.507952 89.358 176.0383
338.946427 89.348 176.2229
341.402572 89.337 176.4008
343.876516 89.326 176.5751
346.368387 89.313 176.7486
348.878315 89.301 176.9237
351.406431 89.287 177.1013
353.952867 89.274 177.2811
356.517756 89.260 177.4626
359.101230 89.247 177.6449
361.703426 89.233 177.8279
364.324478 89.219 178.0121
366.964523 89.205 178.1985
369.623699 89.190 178.3879
372.302145 89.176 178.5807
375.000000 89.162 178.7771
377.717405 89.148 178.9772
380.454501 89.134 179.1805
383.211431 89.120 179.3866
385.988339 89.106 179.5950
388.785369 89.092 179.8057
391.602668 89.079 -179.9814
394.440383 89.066 -179.7662
397.298660 89.053 -179.5486
400.177650 89.041 -179.3293
403.077502 89.029 -179.1096
405.998368 89.018 -178.8913
408.940400 89.006 -178.6753
411.903750 88.993 -178.4602
414.888575 88.980 -178.2424
417.895028 88.967 -178.0176
420.923268 88.953 -177.7832
423.973452 88.940 -177.5383
427.045738 88.929 -177.2851
430.140287 88.919 -177.0276
433.257261 88.910 -176.7710
436.396822 88.904 -176.5184
439.559133 88.898 -176.2704
442.744360 88.894 -176.0273
445.952668 88.891 -175.7911
449.184225 88.890 -175.5667
452.439199 88.888 -175.3594
455.717760 88.886 -175.1720
459.020079 88.882 -174.9999
462.346327 88.874 -174.8324
465.696680 88.864 -174.6581
469.071310 88.853 -174.4707
472.470394 88.841 -174.2697
475.894109 88.829 -174.0583
479.342634 88.818 -173.8423
482.816148 88.807 -173.6270
486.314833 88.796 -173.4140
489.838871 88.784 -173.1988
493.388445 88.771 -172.9733
496.963741 88.758 -172.7333
500.564945 88.746 -172.4817
504.192245 88.735 -172.2260
507.845830 88.726 -171.9734
511.525890 88.717 -171.7273
515.232618 88.708 -171.4868
518.966206 88.698 -171.2479
522.726849 88.687 -171.0051
526.514743 88.675 -170.7537
530.330086 88.664 -170.4917
534.173076 88.654 -170.2217
538.043915 88.644 -169.9480
541.942803 88.636 -169.6732
545.869944 88.628 -169.3965
549.825542 88.620 -169.1176
553.809805 88.613 -168.8378
557.822939 88.607 -168.5597
561.865154 88.601 -168.2852
565.936660 88.594 -168.0137
570.037671 88.587 -167.7429
574.168399 88.580 -167.4695
578.329060 88.572 -167.1920
582.519870 88.564 -166.9101
586.741049 88.555 -166.6237
590.992817 88.547 -166.3307
595.275394 88.539 -166.0287
599.589005 88.532 -165.7182
603.933874 88.526 -165.4026
608.310228 88.521 -165.0857
612.718295 88.517 -164.7699
617.158304 88.514 -164.4546
621.630488 88.510 -164.1360
626.135079 88.507 -163.8089
630.672311 88.505 -163.4708
635.242423 88.504 -163.1239
639.845651 88.504 -162.7717
644.482237 88.506 -162.4140
649.152421 88.509 -162.0483
653.856447 88.513 -161.6755
658.594560 88.520 -161.3025
663.367008 88.528 -160.9406
668.174039 88.537 -160.5992
673.015903 88.544 -160.2794
677.892854 88.548 -159.9754
682.805145 88.551 -159.6793
687.753032 88.551 -159.3840
692.736774 88.550 -159.0833
697.756631 88.549 -158.7715
702.812863 88.549 -158.4471
707.905735 88.549 -158.1130
713.035511 88.551 -157.7742
718.202461 88.555 -157.4341
723.406852 88.558 -157.0923
728.648956 88.563 -156.7466
733.929047 88.568 -156.3950
739.247399 88.574 -156.0366
744.604290 88.580 -155.6711
750.000000 88.587 -155.2992
755.434809 88.595 -154.9218
760.909001 88.603 -154.5399
766.422861 88.612 -154.1541
771.976677 88.622 -153.7643
777.570739 88.633 -153.3705
783.205337 88.645 -152.9726
788.880766 88.658 -152.5694
794.597321 88.672 -152.1586
800.355301 88.688 -151.7385
806.155005 88.707 -151.3111
811.996736 88.728 -150.8826
817.880799 88.753 -150.4618
823.807501 88.781 -150.0577
829.777150 88.810 -149.6778
835.790057 88.840 -149.3234
841.846536 88.867 -148.9875
847.946903 88.893 -148.6599
854.091476 88.917 -148.3328
860.280575 88.939 -148.0031
866.514523 88.961 -147.6681
872.793644 88.982 -147.3242
879.118267 89.005 -146.9713
885.488720 89.028 -146.6131
891.905336 89.053 -146.2531
898.368450 89.078 -145.8919
904.878398 89.104 -145.5276
911.435520 89.132 -145.1593
918.040157 89.161 -144.7886
924.692655 89.191 -144.4180
931.393359 89.224 -144.0502
938.142619 89.258 -143.6880
944.940787 89.293 -143.3330
951.788218 89.329 -142.9843
958.685268 89.365 -142.6403
965.632296 89.401 -142.2986
972.629666 89.437 -141.9573
979.677741 89.475 -141.6153
986.776890 89.513 -141.2735
993.927482 89.551 -140.9311
1001.129891 89.590 -140.5848
1008.384491 89.630 -140.2318
1015.691660 89.673 -139.8744
1023.051781 89.718 -139.5186
1030.465236 89.767 -139.1732
1037.932411 89.819 -138.8501
1045.453698 89.872 -138.5613
1053.029486 89.925 -138.3113
1060.660172 89.975 -138.0945
1068.346153 90.020 -137.8993
1076.087829 90.061 -137.7122
1083.885605 90.096 -137.5214
1091.739887 90.128 -137.3173
1099.651084 90.155 -137.0914
1107.619609 90.180 -136.8349
1115.645878 90.204 -136.5397
1123.730308 90.227 -136.2000
1131.873321 90.253 -135.8140
1140.075341 90.283 -135.3852
1148.336797 90.319 -134.9221
1156.658119 90.364 -134.4371
1165.039741 90.417 -133.9444
1173.482099 90.479 -133.4577
1181.985634 90.550 -132.9914
1190.550789 90.629 -132.5617
1199.178011 90.714 -132.1853
1207.867749 90.804 -131.8752
1216.620457 90.894 -131.6349
1225.436590 90.982 -131.4560
1234.316609 91.067 -131.3245
1243.260976 91.147 -131.2260
1252.270157 91.223 -131.1478
1261.344623 91.296 -131.0815
1270.484846 91.365 -131.0225
1279.691303 91.432 -130.9668
1288.964474 91.497 -130.9110
1298.304842 91.560 -130.8543
1307.712894 91.623 -130.7983
1317.189120 91.685 -130.7463
1326.734016 91.746 -130.7002
1336.348077 91.805 -130.6591
1346.031806 91.863 -130.6203
1355.785708 91.920 -130.5803
1365.610290 91.975 -130.5361
1375.506065 92.030 -130.4838
1385.473549 92.084 -130.4189
1395.513261 92.141 -130.3407
1405.625726 92.200 -130.2542
1415.811469 92.262 -130.1712
1426.071023 92.328 -130.1059
1436.404921 92.396 -130.0678
1446.813703 92.464 -130.0580
1457.297912 92.531 -130.0718
1467.858093 92.596 -130.1038
1478.494798 92.660 -130.1501
1489.208581 92.722 -130.2074
1500.000000 92.783 -130.2726
1510.869618 92.843 -130.3425
1521.818002 92.902 -130.4147
1532.845723 92.960 -130.4870
1543.953355 93.018 -130.5582
1555.141477 93.077 -130.6278
1566.410674 93.138 -130.7000
1577.761531 93.201 -130.7850
1589.194642 93.267 -130.8963
1600.710601 93.333 -131.0431
1612.310010 93.398 -131.2260
1623.993473 93.460 -131.4402
1635.761599 93.519 -131.6782
1647.615002 93.574 -131.9335
1659.554299 93.626 -132.2009
1671.580114 93.675 -132.4759
1683.693072 93.721 -132.7573
1695.893807 93.764 -133.0460
1708.182952 93.804 -133.3440
1720.561150 93.842 -133.6506
1733.029045 93.876 -133.9623
1745.587288 93.907 -134.2733
1758.236533 93.934 -134.5760
1770.977440 93.959 -134.8643
1783.810673 93.984 -135.1378
1796.736900 94.010 -135.4041
1809.756796 94.038 -135.6760
1822.871040 94.066 -135.9634
1836.080315 94.093 -136.2694
1849.385310 94.117 -136.5923
1862.786718 94.139 -136.9282
1876.285239 94.157 -137.2724
1889.881575 94.171 -137.6188
1903.576436 94.182 -137.9608
1917.370535 94.190 -138.2924
1931.264593 94.196 -138.6090
1945.259332 94.202 -138.9107
1959.355483 94.209 -139.2049
1973.553781 94.216 -139.5038
1987.854965 94.223 -139.8173
2002.259781 94.229 -140.1485
2016.768981 94.231 -140.4952
2031.383320 94.230 -140.8525
2046.103561 94.225 -141.2144
2060.930471 94.216 -141.5759
2075.864823 94.203 -141.9340
2090.907395 94.186 -142.2871
2106.058972 94.166 -142.6324
2121.320344 94.141 -142.9643
2136.692305 94.112 -143.2742
2152.175658 94.080 -143.5530
2167.771210 94.047 -143.7971
2183.479774 94.014 -144.0116
2199.302169 93.982 -144.2072
2215.239219 93.951 -144.3935
2231.291755 93.920 -144.5752
2247.460615 93.887 -144.7526
2263.746641 93.853 -144.9222
2280.150683 93.816 -145.0776
2296.673595 93.778 -145.2109
2313.316238 93.739 -145.3153
2330.079481 93.700 -145.3890
2346.964198 93.664 -145.4387
2363.971268 93.631 -145.4764
2381.101578 93.601 -145.5127
2398.356022 93.571 -145.5531
2415.735498 93.542 -145.5985
2433.240913 93.513 -145.6469
2450.873180 93.482 -145.6961
2468.633217 93.451 -145.7453
2486.521951 93.418 -145.7925
2504.540314 93.383 -145.8328
2522.689246 93.346 -145.8571
2540.969692 93.307 -145.8563
2559.382606 93.268 -145.8270
2577.928947 93.231 -145.7747
2596.609683 93.196 -145.7081
2615.425787 93.163 -145.6343
2634.378241 93.130 -145.5563
2653.468031 93.097 -145.4719
2672.696154 93.063 -145.3748
2692.063613 93.030 -145.2565
2711.571415 92.997 -145.1113
2731.220579 92.968 -144.9416
2751.012130 92.942 -144.7575
2770.947098 92.920 -144.5703
2791.026522 92.902 -144.3882
2811.251451 92.885 -144.2153
2831.622938 92.870 -144.0529
2852.142045 92.856 -143.9012
2872.809842 92.841 -143.7582
2893.627406 92.826 -143.6184
2914.595823 92.809 -143.4716
2935.716186 92.792 -143.3087
2956.989596 92.776 -143.1276
2978.417161 92.762 -142.9331
3000.000000 92.751 -142.7322
3021.739237 92.741 -142.5300
3043.636005 92.733 -142.3267
3065.691446 92.727 -142.1177
3087.906710 92.722 -141.8964
3110.282955 92.719 -141.6602
3132.821347 92.721 -141.4142
3155.523062 92.728 -141.1683
3178.389283 92.739 -140.9323
3201.421202 92.754 -140.7138
3224.620020 92.772 -140.5181
3247.986946 92.791 -140.3481
3271.523198 92.811 -140.2028
3295.230004 92.831 -140.0748
3319.108599 92.851 -139.9543
3343.160228 92.871 -139.8358
3367.386145 92.892 -139.7202
3391.787613 92.916 -139.6127
3416.365904 92.941 -139.5172
3441.122300 92.967 -139.4333
3466.058091 92.994 -139.3553
3491.174576 93.023 -139.2775
3516.473066 93.055 -139.2012
3541.954880 93.092 -139.1350
3567.621345 93.134 -139.0917
3593.473800 93.180 -139.0842
3619.513592 93.230 -139.1237
3645.742080 93.282 -139.2186
3672.160630 93.333 -139.3699
3698.770620 93.383 -139.5712
3725.573436 93.429 -139.8143
3752.570477 93.473 -140.0953
3779.763150 93.514 -140.4139
3807.152872 93.552 -140.7695
3834.741071 93.584 -141.1572
3862.529185 93.612 -141.5665
3890.518664 93.635 -141.9874
3918.710966 93.655 -142.4164
3947.107561 93.673 -142.8568
3975.709929 93.690 -143.3159
4004.519563 93.705 -143.8031
4033.537962 93.717 -144.3264
4062.766641 93.724 -144.8876
4092.207123 93.726 -145.4811
4121.860942 93.720 -146.0992
4151.729646 93.707 -146.7369
4181.814790 93.687 -147.3915
4212.117944 93.658 -148.0582
4242.640687 93.620 -148.7257
4273.384610 93.573 -149.3796
4304.351317 93.517 -150.0085
4335.542421 93.455 -150.6079
4366.959549 93.389 -151.1795
4398.604338 93.318 -151.7297
4430.478438 93.242 -152.2656
4462.583511 93.162 -152.7886
4494.921231 93.075 -153.2944
4527.493283 92.983 -153.7781
4560.301365 92.885 -154.2372
4593.347189 92.781 -154.6694
4626.632476 92.669 -155.0674
4660.158962 92.551 -155.4190
4693.928395 92.428 -155.7123
4727.942535 92.301 -155.9412
4762.203156 92.172 -156.1068
4796.712043 92.044 -156.2174
4831.470996 91.916 -156.2831
4866.481826 91.789 -156.3096
4901.746360 91.663 -156.2993
4937.266434 91.537 -156.2549
4973.043902 91.411 -156.1802
5009.080628 91.285 -156.0747
5045.378492 91.158 -155.9308
5081.939384 91.029 -155.7376
5118.765212 90.901 -155.4865
5155.857894 90.775 -155.1761
5193.219366 90.654 -154.8129
5230.851574 90.537 -154.4071
5268.756481 90.426 -153.9666
5306.936062 90.320 -153.4974
5345.392309 90.220 -153.0062
5384.127225 90.124 -152.4988
5423.142830 90.032 -151.9748
5462.441159 89.943 -151.4269
5502.024259 89.858 -150.8454
5541.894195 89.777 -150.2241
5582.053045 89.702 -149.5641
5622.502902 89.635 -148.8725
5663.245876 89.577 -148.1574
5704.284090 89.528 -147.4274
5745.619684 89.488 -146.6931
5787.254813 89.457 -145.9637
5829.191647 89.433 -145.2422
5871.432373 89.417 -144.5253
5913.979192 89.407 -143.8070
5956.834323 89.406 -143.0847
6000.000000 89.415 -142.3620
6043.478473 89.434 -141.6462
6087.272010 89.465 -140.9469
6131.382892 89.508 -140.2766
6175.813420 89.563 -139.6489
6220.565910 89.628 -139.0739
6265.642695 89.703 -138.5558
6311.046124 89.788 -138.0954
6356.778566 89.881 -137.6950
6402.842404 89.985 -137.3614
6449.240040 90.099 -137.1044
6495.973891 90.223 -136.9371
6543.046396 90.356 -136.8755
6590.460007 90.496 -136.9350
6638.217197 90.643 -137.1261
6686.320456 90.792 -137.4539
6734.772290 90.942 -137.9212
6783.575226 91.092 -138.5313
6832.731809 91.240 -139.2887
6882.244600 91.384 -140.1986
6932.116181 91.522 -141.2677
6982.349153 91.649 -142.5006
7032.946133 91.763 -143.8956
7083.909760 91.859 -145.4421
7135.242690 91.934 -147.1233
7186.947600 91.985 -148.9179
7239.027185 92.010 -150.8020
7291.484160 92.008 -152.7513
7344.321260 91.978 -154.7424
7397.541239 91.919 -156.7505
7451.146872 91.830 -158.7470
7505.140954 91.713 -160.6986
7559.526299 91.567 -162.5725
7614.305743 91.397 -164.3385
7669.482141 91.206 -165.9732
7725.058371 90.999 -167.4641
7781.037328 90.781 -168.8083
7837.421932 90.555 -170.0074
7894.215122 90.326 -171.0621
7951.419859 90.096 -171.9732
8009.039125 89.870 -172.7423
8067.075924 89.652 -173.3763
8125.533282 89.447 -173.8920
8184.414245 89.260 -174.3161
8243.721885 89.093 -174.6784
8303.459292 88.948 -175.0069
8363.629581 88.827 -175.3270
8424.235888 88.731 -175.6631
8485.281374 88.661 -176.0440
8546.769221 88.620 -176.5089
8608.702634 88.608 -177.1050
8671.084842 88.623 -177.8818
8733.919097 88.661 -178.8856
8797.208675 88.717 179.8430
8860.956876 88.786 178.2683
8925.167022 88.860 176.3573
8989.842461 88.929 174.0813
9054.986566 88.983 171.4232
9120.602731 89.006 168.3863
9186.694378 88.986 164.9990
9253.264952 88.909 161.3162
9320.317925 88.764 157.4142
9387.856790 88.542 153.3834
9455.885071 88.240 149.3228
9524.406312 87.855 145.3359
9593.424086 87.389 141.5258
9662.941992 86.847 137.9895
9732.963653 86.239 134.8101
9803.492719 85.576 132.0482
9874.532869 84.871 129.7397
9946.087805 84.138 127.8979
10018.161257 83.389 126.5212
10090.756983 82.637 125.5989
10163.878768 81.892 125.1103
10237.530423 81.165 125.0230
10311.715789 80.463 125.2935
10386.438732 79.795 125.8736
10461.703149 79.165 126.7195
10537.512962 78.577 127.7928
10613.872125 78.036 129.0545
10690.784618 77.544 130.4594
10768.254450 77.104 131.9571
10846.285661 76.717 133.4984
10924.882318 76.384 135.0372
11004.048518 76.104 136.5249
11083.788390 75.877 137.9050
11164.106090 75.700 139.1136
11245.005805 75.569 140.0903
11326.491752 75.474 140.7851
11408.568180 75.406 141.1608
11491.239368 75.355 141.1904
11574.509626 75.307 140.8613
11658.383294 75.247 140.1854
11742.864745 75.161 139.2051
11827.958384 75.038 137.9893
11913.668646 74.867 136.6240
12000.000000 74.645 135.2052
12086.956947 74.370 133.8354
12174.544019 74.046 132.6170
12262.765784 73.678 131.6408
12351.626840 73.279 130.9740
12441.131819 72.860 130.6566
12531.285389 72.435 130.7042
12622.092249 72.016 131.1128
12713.557132 71.615 131.8594
12805.684808 71.241 132.9045
12898.480079 70.902 134.2001
12991.947783 70.604 135.6988
13086.092792 70.350 137.3578
13180.920015 70.142 139.1349
13276.434395 69.980 140.9893
13372.640911 69.864 142.8868
13469.544580 69.791 144.8034
13567.150452 69.762 146.7190
13665.463617 69.775 148.6142
13764.489200 69.830 150.4716
13864.232362 69.927 152.2791
13964.698305 70.067 154.0255
14065.892266 70.249 155.6942
14167.819519 70.475 157.2644
14270.485380 70.743 158.7154
14373.895200 71.055 160.0220
14478.054370 71.410 161.1523
14582.968320 71.807 162.0724
14688.642520 72.245 162.7535
14795.082478 72.722 163.1693
14902.293745 73.235 163.2919
15010.281908 73.782 163.0924
15119.052599 74.361 162.5431
15228.611486 74.967 161.6148
15338.964283 75.597 160.2768
15450.116741 76.246 158.4988
15562.074656 76.908 156.2534
15674.843864 77.577 153.5140
15788.430244 78.248 150.2542
15902.839718 78.911 146.4493
16018.078250 79.558 142.0769
16134.151848 80.176 137.1164
16251.066563 80.753 131.5522
16368.828491 81.274 125.3796
16487.443769 81.721 118.6105
16606.918584 82.076 111.2774
16727.259161 82.319 103.4404
16848.471777 82.432 95.1931
16970.562748 82.397 86.6610
17093.538442 82.203 77.9984
17217.405268 81.843 69.3819
17342.169684 81.315 60.9957
17467.838194 80.627 53.0147
17594.417350 79.791 45.5870
17721.913751 78.826 38.8180
17850.334044 77.756 32.7598
17979.684923 76.602 27.4183
18109.973131 75.384 22.7731
18241.205462 74.118 18.7951
18373.388756 72.812 15.4583
18506.529905 71.475 12.7475
18640.635849 70.112 10.6560
18775.713581 68.726 9.1811
18911.770141 67.322 8.3224
19048.812624 65.901 8.0800
19186.848172 64.471 8.4505
19325.883983 63.038 9.4220
19465.927305 61.619 10.9590
19606.985439 60.248 12.9657
19749.065738 58.996 15.2185
19892.175609 57.994 17.2889
20036.322514 57.419 18.5725
