* Measurement data measured by REW V5.31.3
* Source: EXCL: Microphone (USB Sound Device        ), no input selected, R, volume: 0.390
* Format: 256k Log Swept Sine, 1 sweep at -12.0 dBFS with no timing reference
* Dated: Jul 23, 2025 12:02:10 AM
* REW Settings:
*  C-weighting compensation: Off
*  Target level: 75.0 dB
* Note: Unique Melody Indigo R
* Measurement: R UM Indigo
* Smoothing: 1/12 octave
* Frequency Step: 96 ppo
* Start Frequency: 0.36621094 Hz
*
* Freq(Hz) SPL(dB) Phase(degrees)
0.366211 85.886 -105.7520
0.368865 85.901 -105.7951
0.371538 85.924 -105.8593
0.374230 85.951 -105.9392
0.376942 85.982 -106.0305
0.379673 86.015 -106.1298
0.382424 86.050 -106.2349
0.385196 86.085 -106.3444
0.387987 86.121 -106.4575
0.390798 86.157 -106.5739
0.393630 86.194 -106.6931
0.396483 86.231 -106.8152
0.399356 86.269 -106.9400
0.402250 86.306 -107.0674
0.405165 86.344 -107.1974
0.408101 86.383 -107.3301
0.411058 86.421 -107.4652
0.414037 86.460 -107.6029
0.417037 86.499 -107.7430
0.420059 86.538 -107.8856
0.423103 86.578 -108.0306
0.426169 86.618 -108.1780
0.429257 86.658 -108.3277
0.432368 86.699 -108.4797
0.435501 86.739 -108.6340
0.438656 86.781 -108.7904
0.441835 86.822 -108.9491
0.445037 86.864 -109.1098
0.448262 86.906 -109.2726
0.451510 86.948 -109.4375
0.454782 86.991 -109.6044
0.458077 87.034 -109.7731
0.461397 87.077 -109.9438
0.464740 87.120 -110.1163
0.468108 87.164 -110.2906
0.471500 87.208 -110.4666
0.474917 87.253 -110.6443
0.478358 87.298 -110.8236
0.481825 87.343 -111.0045
0.485316 87.388 -111.1870
0.488833 87.434 -111.3708
0.492375 87.480 -111.5561
0.495943 87.527 -111.7428
0.499537 87.574 -111.9307
0.503157 87.621 -112.1199
0.506803 87.668 -112.3103
0.510475 87.716 -112.5019
0.514175 87.764 -112.6945
0.517900 87.813 -112.8882
0.521653 87.862 -113.0828
0.525434 87.911 -113.2784
0.529241 87.960 -113.4749
0.533076 88.010 -113.6722
0.536939 88.061 -113.8703
0.540830 88.111 -114.0691
0.544749 88.162 -114.2686
0.548696 88.214 -114.4688
0.552673 88.266 -114.6695
0.556677 88.318 -114.8708
0.560711 88.370 -115.0726
0.564774 88.423 -115.2749
0.568867 88.477 -115.4776
0.572989 88.530 -115.6807
0.577141 88.584 -115.8842
0.581324 88.639 -116.0879
0.585536 88.694 -116.2920
0.589779 88.749 -116.4963
0.594053 88.805 -116.7008
0.598358 88.861 -116.9056
0.602694 88.917 -117.1105
0.607061 88.974 -117.3155
0.611460 89.032 -117.5207
0.615891 89.089 -117.7260
0.620354 89.147 -117.9313
0.624849 89.206 -118.1367
0.629377 89.265 -118.3422
0.633938 89.324 -118.5478
0.638532 89.384 -118.7534
0.643159 89.444 -118.9590
0.647819 89.505 -119.1646
0.652514 89.566 -119.3703
0.657242 89.628 -119.5760
0.662005 89.690 -119.7818
0.666802 89.753 -119.9875
0.671634 89.815 -120.1934
0.676501 89.879 -120.3993
0.681403 89.943 -120.6054
0.686341 90.007 -120.8115
0.691314 90.072 -121.0178
0.696324 90.137 -121.2243
0.701370 90.202 -121.4311
0.706452 90.267 -121.6382
0.711571 90.332 -121.8458
0.716728 90.396 -122.0541
0.721921 90.458 -122.2634
0.727153 90.518 -122.4741
0.732422 90.575 -122.6867
0.737729 90.627 -122.9019
0.743075 90.676 -123.1202
0.748460 90.722 -123.3420
0.753883 90.766 -123.5677
0.759346 90.808 -123.7974
0.764849 90.849 -124.0312
0.770391 90.888 -124.2689
0.775974 90.927 -124.5106
0.781597 90.965 -124.7561
0.787261 91.002 -125.0053
0.792966 91.039 -125.2581
0.798712 91.075 -125.5143
0.804500 91.110 -125.7738
0.810329 91.144 -126.0365
0.816201 91.177 -126.3021
0.822116 91.210 -126.5706
0.828073 91.242 -126.8418
0.834074 91.274 -127.1156
0.840118 91.304 -127.3917
0.846206 91.334 -127.6700
0.852338 91.363 -127.9503
0.858514 91.391 -128.2326
0.864735 91.418 -128.5165
0.871001 91.445 -128.8020
0.877313 91.471 -129.0889
0.883670 91.496 -129.3770
0.890074 91.520 -129.6661
0.896524 91.543 -129.9560
0.903020 91.566 -130.2467
0.909564 91.588 -130.5378
0.916155 91.609 -130.8292
0.922794 91.629 -131.1208
0.929481 91.649 -131.4123
0.936216 91.668 -131.7035
0.943000 91.686 -131.9943
0.949834 91.703 -132.2845
0.956717 91.719 -132.5739
0.963649 91.735 -132.8623
0.970632 91.750 -133.1494
0.977666 91.764 -133.4352
0.984750 91.777 -133.7193
0.991886 91.790 -134.0016
0.999074 91.801 -134.2819
1.006314 91.812 -134.5600
1.013606 91.823 -134.8356
1.020951 91.833 -135.1086
1.028349 91.841 -135.3788
1.035801 91.850 -135.6458
1.043307 91.857 -135.9096
1.050867 91.864 -136.1700
1.058482 91.871 -136.4268
1.066152 91.876 -136.6800
1.073878 91.881 -136.9298
1.081660 91.885 -137.1766
1.089498 91.889 -137.4209
1.097393 91.892 -137.6639
1.105345 91.893 -137.9068
1.113355 91.894 -138.1511
1.121423 91.894 -138.3979
1.129549 91.893 -138.6481
1.137734 91.891 -138.9023
1.145979 91.887 -139.1606
1.154283 91.882 -139.4233
1.162647 91.876 -139.6904
1.171072 91.868 -139.9616
1.179558 91.859 -140.2369
1.188106 91.849 -140.5160
1.196715 91.838 -140.7988
1.205387 91.825 -141.0849
1.214122 91.810 -141.3742
1.222920 91.795 -141.6662
1.231782 91.777 -141.9606
1.240708 91.758 -142.2571
1.249699 91.738 -142.5553
1.258754 91.716 -142.8547
1.267876 91.693 -143.1547
1.277063 91.668 -143.4550
1.286318 91.642 -143.7549
1.295639 91.613 -144.0538
1.305027 91.584 -144.3511
1.314484 91.552 -144.6459
1.324009 91.519 -144.9376
1.333604 91.484 -145.2252
1.343268 91.447 -145.5080
1.353002 91.409 -145.7848
1.362806 91.369 -146.0547
1.372681 91.327 -146.3165
1.382628 91.283 -146.5690
1.392647 91.237 -146.8111
1.402739 91.189 -147.0414
1.412904 91.139 -147.2587
1.423142 91.088 -147.4617
1.433455 91.033 -147.6496
1.443843 90.977 -147.8214
1.454305 90.918 -147.9771
1.464844 90.855 -148.1170
1.475459 90.789 -148.2419
1.486150 90.719 -148.3528
1.496920 90.644 -148.4507
1.507767 90.565 -148.5361
1.518693 90.481 -148.6091
1.529698 90.393 -148.6696
1.540783 90.301 -148.7171
1.551948 90.204 -148.7510
1.563194 90.103 -148.7706
1.574521 89.999 -148.7750
1.585931 89.892 -148.7632
1.597423 89.782 -148.7343
1.608999 89.669 -148.6870
1.620658 89.554 -148.6202
1.632402 89.437 -148.5324
1.644232 89.319 -148.4223
1.656146 89.200 -148.2883
1.668147 89.080 -148.1288
1.680235 88.961 -147.9421
1.692411 88.841 -147.7262
1.704675 88.723 -147.4794
1.717028 88.606 -147.1994
1.729470 88.492 -146.8842
1.742003 88.379 -146.5315
1.754626 88.270 -146.1389
1.767341 88.165 -145.7040
1.780147 88.064 -145.2241
1.793047 87.967 -144.6963
1.806040 87.875 -144.1173
1.819128 87.786 -143.4836
1.832310 87.702 -142.7909
1.845587 87.621 -142.0347
1.858961 87.541 -141.2106
1.872432 87.463 -140.3146
1.886001 87.387 -139.3435
1.899667 87.311 -138.2947
1.913433 87.236 -137.1666
1.927299 87.163 -135.9585
1.941265 87.091 -134.6702
1.955332 87.023 -133.3028
1.969501 86.957 -131.8583
1.983773 86.895 -130.3399
1.998148 86.837 -128.7520
2.012627 86.784 -127.1003
2.027212 86.738 -125.3923
2.041902 86.697 -123.6364
2.056698 86.665 -121.8426
2.071602 86.640 -120.0223
2.086614 86.625 -118.1874
2.101734 86.620 -116.3509
2.116964 86.626 -114.5255
2.132304 86.645 -112.7237
2.147756 86.676 -110.9566
2.163320 86.723 -109.2334
2.178996 86.785 -107.5604
2.194786 86.865 -105.9407
2.210690 86.962 -104.3748
2.226710 87.078 -102.8624
2.242845 87.214 -101.4036
2.259098 87.368 -100.0001
2.275468 87.539 -98.6549
2.291957 87.728 -97.3713
2.308566 87.931 -96.1528
2.325295 88.147 -95.0023
2.342145 88.375 -93.9222
2.359117 88.613 -92.9143
2.376212 88.859 -91.9795
2.393431 89.110 -91.1182
2.410775 89.366 -90.3302
2.428244 89.622 -89.6149
2.445840 89.879 -88.9714
2.463564 90.133 -88.3985
2.481416 90.383 -87.8946
2.499397 90.627 -87.4583
2.517509 90.863 -87.0876
2.535752 91.092 -86.7803
2.554127 91.314 -86.5338
2.572635 91.528 -86.3453
2.591277 91.737 -86.2113
2.610055 91.941 -86.1283
2.628968 92.142 -86.0925
2.648019 92.341 -86.1003
2.667208 92.537 -86.1480
2.686535 92.731 -86.2324
2.706003 92.922 -86.3501
2.725612 93.111 -86.4981
2.745363 93.298 -86.6737
2.765257 93.481 -86.8742
2.785295 93.662 -87.0974
2.805478 93.839 -87.3413
2.825808 94.013 -87.6041
2.846285 94.183 -87.8847
2.866910 94.349 -88.1824
2.887685 94.510 -88.4972
2.908611 94.667 -88.8299
2.929688 94.819 -89.1819
2.950917 94.967 -89.5549
2.972301 95.109 -89.9503
2.993839 95.246 -90.3683
3.015534 95.378 -90.8081
3.037386 95.506 -91.2679
3.059396 95.628 -91.7451
3.081565 95.746 -92.2372
3.103896 95.860 -92.7410
3.126388 95.970 -93.2536
3.149043 96.076 -93.7721
3.171862 96.179 -94.2941
3.194847 96.278 -94.8171
3.217998 96.373 -95.3396
3.241317 96.466 -95.8607
3.264805 96.555 -96.3806
3.288463 96.641 -96.9009
3.312293 96.724 -97.4240
3.336295 96.802 -97.9524
3.360471 96.876 -98.4883
3.384822 96.946 -99.0322
3.409350 97.012 -99.5835
3.434056 97.074 -100.1406
3.458940 97.132 -100.7013
3.484005 97.187 -101.2628
3.509252 97.238 -101.8222
3.534681 97.285 -102.3764
3.560295 97.331 -102.9226
3.586094 97.373 -103.4583
3.612081 97.413 -103.9820
3.638255 97.450 -104.4929
3.664620 97.485 -104.9916
3.691175 97.516 -105.4796
3.717923 97.545 -105.9587
3.744864 97.570 -106.4304
3.772001 97.592 -106.8955
3.799335 97.610 -107.3538
3.826866 97.627 -107.8047
3.854597 97.640 -108.2471
3.882529 97.652 -108.6793
3.910664 97.662 -109.0996
3.939002 97.671 -109.5062
3.967546 97.679 -109.8974
3.996296 97.686 -110.2715
4.025255 97.692 -110.6277
4.054423 97.697 -110.9655
4.083804 97.701 -111.2851
4.113396 97.704 -111.5873
4.143204 97.706 -111.8730
4.173227 97.706 -112.1435
4.203468 97.706 -112.4000
4.233928 97.706 -112.6435
4.264609 97.707 -112.8752
4.295512 97.708 -113.0957
4.326639 97.710 -113.3054
4.357992 97.714 -113.5043
4.389572 97.719 -113.6917
4.421380 97.726 -113.8668
4.453419 97.734 -114.0291
4.485691 97.744 -114.1790
4.518196 97.755 -114.3178
4.550936 97.768 -114.4478
4.583914 97.782 -114.5718
4.617131 97.798 -114.6930
4.650589 97.816 -114.8147
4.684289 97.836 -114.9396
4.718233 97.858 -115.0696
4.752424 97.882 -115.2059
4.786862 97.908 -115.3485
4.821549 97.937 -115.4971
4.856488 97.967 -115.6516
4.891680 98.000 -115.8127
4.927127 98.035 -115.9818
4.962831 98.071 -116.1608
4.998794 98.108 -116.3518
5.035017 98.145 -116.5572
5.071503 98.183 -116.7790
5.108253 98.222 -117.0187
5.145270 98.260 -117.2771
5.182555 98.299 -117.5543
5.220110 98.338 -117.8498
5.257937 98.377 -118.1627
5.296038 98.416 -118.4920
5.334415 98.454 -118.8369
5.373071 98.491 -119.1966
5.412006 98.527 -119.5708
5.451224 98.561 -119.9594
5.490725 98.593 -120.3630
5.530514 98.623 -120.7817
5.570590 98.651 -121.2155
5.610957 98.677 -121.6634
5.651616 98.700 -122.1236
5.692570 98.721 -122.5936
5.733821 98.740 -123.0707
5.775370 98.756 -123.5524
5.817221 98.770 -124.0370
5.859375 98.781 -124.5236
5.901834 98.789 -125.0118
5.944602 98.794 -125.5016
5.987679 98.796 -125.9921
6.031068 98.796 -126.4819
6.074771 98.794 -126.9686
6.118792 98.789 -127.4497
6.163131 98.782 -127.9228
6.207792 98.774 -128.3858
6.252776 98.764 -128.8377
6.298086 98.752 -129.2782
6.343725 98.738 -129.7071
6.389694 98.724 -130.1245
6.435996 98.708 -130.5300
6.482634 98.693 -130.9231
6.529610 98.677 -131.3031
6.576926 98.661 -131.6692
6.624585 98.646 -132.0210
6.672590 98.632 -132.3584
6.720942 98.619 -132.6825
6.769645 98.607 -132.9947
6.818700 98.596 -133.2970
6.868111 98.587 -133.5912
6.917881 98.580 -133.8790
6.968010 98.575 -134.1616
7.018504 98.573 -134.4397
7.069362 98.573 -134.7145
7.120590 98.575 -134.9875
7.172189 98.580 -135.2612
7.224161 98.586 -135.5382
7.276511 98.595 -135.8208
7.329239 98.605 -136.1109
7.382350 98.618 -136.4095
7.435845 98.632 -136.7173
7.489729 98.647 -137.0347
7.544002 98.664 -137.3623
7.598669 98.681 -137.7009
7.653732 98.699 -138.0511
7.709194 98.716 -138.4135
7.765058 98.734 -138.7879
7.821327 98.751 -139.1736
7.878004 98.768 -139.5693
7.935091 98.784 -139.9735
7.992592 98.799 -140.3847
8.050510 98.812 -140.8015
8.108847 98.824 -141.2229
8.167607 98.835 -141.6477
8.226793 98.844 -142.0741
8.286408 98.851 -142.5000
8.346454 98.857 -142.9232
8.406936 98.861 -143.3416
8.467856 98.865 -143.7537
8.529218 98.866 -144.1584
8.591024 98.867 -144.5547
8.653278 98.867 -144.9416
8.715983 98.867 -145.3178
8.779143 98.866 -145.6824
8.842760 98.865 -146.0350
8.906839 98.864 -146.3753
8.971381 98.863 -146.7039
9.036392 98.863 -147.0215
9.101873 98.864 -147.3288
9.167829 98.866 -147.6267
9.234263 98.869 -147.9159
9.301178 98.873 -148.1976
9.368578 98.878 -148.4734
9.436467 98.885 -148.7449
9.504847 98.893 -149.0138
9.573723 98.902 -149.2813
9.643099 98.912 -149.5485
9.712976 98.923 -149.8163
9.783361 98.935 -150.0859
9.854255 98.947 -150.3579
9.925663 98.960 -150.6331
9.997588 98.972 -150.9116
10.070035 98.984 -151.1933
10.143007 98.996 -151.4778
10.216507 99.007 -151.7647
10.290540 99.018 -152.0533
10.365109 99.027 -152.3431
10.440219 99.036 -152.6331
10.515873 99.043 -152.9222
10.592076 99.049 -153.2095
10.668830 99.055 -153.4938
10.746141 99.059 -153.7746
10.824012 99.062 -154.0510
10.902447 99.064 -154.3225
10.981451 99.065 -154.5886
11.061027 99.066 -154.8488
11.141180 99.066 -155.1033
11.221913 99.065 -155.3520
11.303232 99.064 -155.5954
11.385140 99.063 -155.8338
11.467641 99.062 -156.0676
11.550741 99.060 -156.2975
11.634442 99.059 -156.5242
11.718750 99.057 -156.7485
11.803669 99.055 -156.9708
11.889203 99.053 -157.1919
11.975357 99.051 -157.4123
12.062136 99.049 -157.6325
12.149543 99.047 -157.8530
12.237583 99.044 -158.0743
12.326262 99.041 -158.2965
12.415583 99.038 -158.5200
12.505552 99.034 -158.7452
12.596172 99.031 -158.9722
12.687449 99.027 -159.2014
12.779387 99.022 -159.4332
12.871992 99.018 -159.6679
12.965268 99.013 -159.9059
13.059220 99.008 -160.1476
13.153852 99.003 -160.3934
13.249170 98.997 -160.6436
13.345179 98.991 -160.8986
13.441884 98.984 -161.1583
13.539289 98.977 -161.4229
13.637401 98.969 -161.6920
13.736223 98.961 -161.9653
13.835761 98.952 -162.2422
13.936021 98.942 -162.5218
14.037007 98.931 -162.8034
14.138725 98.919 -163.0858
14.241180 98.907 -163.3681
14.344377 98.894 -163.6493
14.448323 98.881 -163.9285
14.553021 98.868 -164.2053
14.658478 98.856 -164.4793
14.764700 98.843 -164.7505
14.871691 98.831 -165.0195
14.979457 98.821 -165.2869
15.088005 98.811 -165.5540
15.197339 98.803 -165.8222
15.307465 98.796 -166.0929
15.418389 98.790 -166.3677
15.530117 98.786 -166.6482
15.642655 98.783 -166.9354
15.756008 98.780 -167.2303
15.870182 98.778 -167.5332
15.985184 98.777 -167.8439
16.101019 98.775 -168.1617
16.217694 98.773 -168.4854
16.335214 98.770 -168.8132
16.453586 98.767 -169.1432
16.572815 98.762 -169.4730
16.692909 98.757 -169.8004
16.813872 98.752 -170.1232
16.935713 98.746 -170.4394
17.058436 98.739 -170.7475
17.182048 98.733 -171.0466
17.306556 98.726 -171.3361
17.431967 98.721 -171.6159
17.558286 98.716 -171.8867
17.685521 98.712 -172.1494
17.813677 98.709 -172.4053
17.942762 98.708 -172.6559
18.072783 98.707 -172.9027
18.203746 98.707 -173.1474
18.335658 98.709 -173.3913
18.468526 98.711 -173.6355
18.602356 98.713 -173.8809
18.737156 98.715 -174.1279
18.872934 98.718 -174.3770
19.009695 98.720 -174.6279
19.147447 98.721 -174.8804
19.286197 98.722 -175.1338
19.425953 98.722 -175.3875
19.566721 98.720 -175.6406
19.708510 98.718 -175.8925
19.851326 98.715 -176.1422
19.995177 98.711 -176.3892
20.140070 98.706 -176.6333
20.286013 98.700 -176.8745
20.433014 98.693 -177.1132
20.581080 98.686 -177.3502
20.730219 98.679 -177.5866
20.880439 98.671 -177.8237
21.031747 98.662 -178.0627
21.184152 98.653 -178.3046
21.337661 98.644 -178.5500
21.492282 98.633 -178.7988
21.648024 98.621 -179.0501
21.804895 98.608 -179.3025
21.962902 98.593 -179.5538
22.122054 98.577 -179.8017
22.282360 98.561 179.9559
22.443827 98.544 179.7207
22.606464 98.527 179.4930
22.770280 98.511 179.2718
22.935283 98.497 179.0548
23.101481 98.485 178.8382
23.268884 98.475 178.6173
23.437500 98.467 178.3874
23.607338 98.461 178.1443
23.778406 98.456 177.8852
23.950714 98.451 177.6096
24.124271 98.445 177.3191
24.299086 98.438 177.0177
24.475167 98.429 176.7109
24.652524 98.418 176.4052
24.831166 98.406 176.1067
25.011103 98.392 175.8201
25.192344 98.379 175.5478
25.374898 98.367 175.2896
25.558775 98.357 175.0423
25.743984 98.349 174.8009
25.930536 98.345 174.5591
26.118439 98.342 174.3110
26.307704 98.341 174.0522
26.498341 98.340 173.7808
26.690359 98.338 173.4975
26.883768 98.335 173.2061
27.078579 98.329 172.9118
27.274801 98.320 172.6208
27.472446 98.310 172.3390
27.671522 98.297 172.0703
27.872042 98.284 171.8167
28.074014 98.271 171.5778
28.277450 98.258 171.3511
28.482360 98.246 171.1330
28.688755 98.235 170.9191
28.896645 98.225 170.7055
29.106042 98.216 170.4893
29.316957 98.207 170.2682
29.529400 98.198 170.0408
29.743382 98.189 169.8063
29.958915 98.180 169.5641
30.176009 98.169 169.3137
30.394677 98.158 169.0553
30.614929 98.145 168.7897
30.836778 98.131 168.5191
31.060234 98.115 168.2469
31.285309 98.097 167.9773
31.512015 98.077 167.7151
31.740364 98.057 167.4639
31.970368 98.036 167.2255
32.202039 98.017 166.9988
32.435388 98.000 166.7799
32.670428 97.985 166.5629
32.907171 97.973 166.3411
33.145630 97.963 166.1086
33.385817 97.954 165.8626
33.627745 97.944 165.6035
33.871425 97.933 165.3354
34.116871 97.921 165.0646
34.364096 97.906 164.7980
34.613113 97.891 164.5414
34.863934 97.875 164.2970
35.116572 97.860 164.0636
35.371041 97.847 163.8364
35.627354 97.835 163.6086
35.885525 97.824 163.3734
36.145566 97.814 163.1259
36.407492 97.803 162.8645
36.671316 97.789 162.5916
36.937051 97.772 162.3132
37.204712 97.751 162.0371
37.474313 97.728 161.7717
37.745867 97.701 161.5238
38.019389 97.673 161.2976
38.294893 97.646 161.0934
38.572394 97.620 160.9076
38.851905 97.597 160.7336
39.133442 97.577 160.5626
39.417019 97.560 160.3856
39.702651 97.546 160.1949
39.990353 97.533 159.9858
40.280140 97.520 159.7568
40.572026 97.507 159.5102
40.866028 97.493 159.2508
41.162160 97.476 158.9849
41.460438 97.458 158.7186
41.760877 97.439 158.4567
42.063494 97.419 158.2022
42.368303 97.399 157.9555
42.675322 97.379 157.7154
42.984565 97.359 157.4797
43.296048 97.340 157.2461
43.609789 97.321 157.0135
43.925804 97.302 156.7819
44.244108 97.282 156.5528
44.564719 97.261 156.3284
44.887654 97.240 156.1106
45.212928 97.219 155.9006
45.540560 97.198 155.6981
45.870565 97.178 155.5012
46.202962 97.159 155.3069
46.537768 97.141 155.1119
46.875000 97.124 154.9132
47.214676 97.108 154.7088
47.556813 97.092 154.4974
47.901429 97.076 154.2789
48.248542 97.060 154.0536
48.598171 97.044 153.8221
48.950334 97.028 153.5851
49.305048 97.011 153.3437
49.662333 96.993 153.0993
50.022206 96.974 152.8544
50.384688 96.954 152.6120
50.749796 96.933 152.3752
51.117550 96.911 152.1467
51.487969 96.889 151.9277
51.861072 96.867 151.7182
52.236879 96.845 151.5167
52.615409 96.823 151.3214
52.996681 96.801 151.1301
53.380717 96.780 150.9413
53.767536 96.760 150.7529
54.157158 96.740 150.5629
54.549603 96.720 150.3694
54.944892 96.700 150.1703
55.343045 96.681 149.9645
55.744084 96.662 149.7516
56.148028 96.642 149.5320
56.554900 96.622 149.3066
56.964720 96.602 149.0764
57.377510 96.582 148.8419
57.793291 96.562 148.6038
58.212085 96.541 148.3629
58.633914 96.521 148.1204
59.058799 96.499 147.8778
59.486764 96.477 147.6373
59.917829 96.455 147.4010
60.352019 96.431 147.1711
60.789354 96.407 146.9487
61.229859 96.383 146.7343
61.673556 96.358 146.5273
62.120468 96.332 146.3264
62.570618 96.306 146.1296
63.024031 96.280 145.9359
63.480729 96.252 145.7441
63.940736 96.223 145.5539
64.404077 96.194 145.3647
64.870776 96.164 145.1756
65.340856 96.133 144.9855
65.814343 96.102 144.7937
66.291261 96.071 144.5997
66.771635 96.040 144.4039
67.255489 96.008 144.2067
67.742850 95.977 144.0085
68.233743 95.947 143.8095
68.728193 95.917 143.6104
69.226226 95.887 143.4120
69.727867 95.858 143.2158
70.233144 95.829 143.0235
70.742083 95.800 142.8363
71.254709 95.772 142.6547
71.771050 95.743 142.4783
72.291132 95.715 142.3066
72.814984 95.686 142.1389
73.342631 95.657 141.9749
73.874102 95.627 141.8138
74.409424 95.596 141.6542
74.948626 95.565 141.4944
75.491734 95.533 141.3320
76.038779 95.501 141.1652
76.589787 95.469 140.9929
77.144788 95.437 140.8148
77.703811 95.404 140.6309
78.266885 95.373 140.4415
78.834039 95.342 140.2463
79.405303 95.312 140.0449
79.980706 95.283 139.8372
80.560280 95.255 139.6237
81.144053 95.226 139.4055
81.732056 95.197 139.1848
82.324320 95.167 138.9638
82.920876 95.135 138.7448
83.521755 95.102 138.5303
84.126988 95.068 138.3223
84.736607 95.031 138.1221
85.350643 94.993 137.9303
85.969129 94.955 137.7462
86.592097 94.915 137.5687
87.219579 94.876 137.3966
87.851608 94.836 137.2291
88.488217 94.797 137.0664
89.129439 94.758 136.9089
89.775308 94.719 136.7571
90.425856 94.682 136.6106
91.081119 94.646 136.4677
91.741131 94.611 136.3259
92.405925 94.577 136.1831
93.075536 94.543 136.0378
93.750000 94.509 135.8902
94.429351 94.475 135.7415
95.113625 94.440 135.5939
95.802858 94.405 135.4489
96.497085 94.371 135.3067
97.196342 94.336 135.1669
97.900667 94.302 135.0282
98.610096 94.269 134.8896
99.324665 94.236 134.7509
100.044413 94.202 134.6129
100.769376 94.169 134.4771
101.499592 94.135 134.3448
102.235100 94.102 134.2173
102.975938 94.068 134.0943
103.722144 94.035 133.9743
104.473757 94.002 133.8550
105.230817 93.970 133.7343
105.993363 93.939 133.6105
106.761435 93.908 133.4828
107.535072 93.877 133.3511
108.314315 93.846 133.2159
109.099206 93.815 133.0779
109.889783 93.785 132.9377
110.686090 93.753 132.7955
111.488167 93.721 132.6510
112.296056 93.688 132.5038
113.109800 93.654 132.3541
113.929440 93.618 132.2031
114.755020 93.580 132.0532
115.586582 93.541 131.9080
116.424170 93.502 131.7712
117.267827 93.462 131.6458
118.117598 93.423 131.5336
118.973527 93.385 131.4353
119.835658 93.350 131.3502
120.704037 93.317 131.2741
121.578708 93.287 131.2001
122.459718 93.259 131.1224
123.347111 93.232 131.0381
124.240935 93.205 130.9472
125.141236 93.177 130.8504
126.048061 93.149 130.7489
126.961458 93.121 130.6440
127.881473 93.093 130.5371
128.808154 93.064 130.4300
129.741551 93.036 130.3242
130.681712 93.007 130.2205
131.628686 92.978 130.1190
132.582521 92.949 130.0190
133.543269 92.919 129.9198
134.510979 92.889 129.8212
135.485701 92.857 129.7234
136.467486 92.824 129.6270
137.456386 92.791 129.5326
138.452451 92.757 129.4404
139.455735 92.724 129.3499
140.466288 92.689 129.2603
141.484165 92.655 129.1698
142.509418 92.621 129.0769
143.542100 92.587 128.9799
144.582265 92.552 128.8777
145.629968 92.518 128.7699
146.685262 92.483 128.6571
147.748204 92.448 128.5416
148.818849 92.413 128.4269
149.897251 92.377 128.3177
150.983469 92.341 128.2186
152.077557 92.305 128.1332
153.179574 92.270 128.0637
154.289576 92.235 128.0094
155.407622 92.202 127.9672
156.533770 92.170 127.9316
157.668078 92.140 127.8961
158.810606 92.111 127.8557
159.961413 92.083 127.8079
161.120559 92.055 127.7527
162.288105 92.027 127.6915
163.464112 91.999 127.6266
164.648640 91.971 127.5612
165.841752 91.941 127.4984
167.043510 91.911 127.4412
168.253976 91.881 127.3917
169.473213 91.851 127.3513
170.701286 91.821 127.3198
171.938258 91.792 127.2954
173.184194 91.765 127.2753
174.439158 91.739 127.2567
175.703216 91.715 127.2374
176.976434 91.692 127.2162
178.258878 91.671 127.1927
179.550615 91.652 127.1665
180.851713 91.634 127.1375
182.162239 91.616 127.1062
183.482262 91.600 127.0724
184.811850 91.585 127.0346
186.151073 91.571 126.9903
187.500000 91.557 126.9367
188.858702 91.545 126.8718
190.227250 91.532 126.7949
191.605715 91.520 126.7066
192.994169 91.508 126.6080
194.392685 91.494 126.5008
195.801334 91.481 126.3866
197.220191 91.466 126.2679
198.649330 91.450 126.1478
200.088825 91.434 126.0287
201.538751 91.417 125.9113
202.999184 91.401 125.7935
204.470200 91.384 125.6720
205.951875 91.367 125.5428
207.444287 91.350 125.4036
208.947514 91.332 125.2552
210.461634 91.313 125.1014
211.986726 91.292 124.9474
213.522869 91.269 124.7997
215.070144 91.245 124.6639
216.628631 91.220 124.5440
218.198411 91.195 124.4408
219.779567 91.172 124.3510
221.372180 91.150 124.2687
222.976334 91.131 124.1873
224.592112 91.112 124.1023
226.219600 91.095 124.0120
227.858880 91.078 123.9168
229.510039 91.061 123.8183
231.173164 91.044 123.7178
232.848340 91.028 123.6162
234.535655 91.012 123.5131
236.235197 90.996 123.4077
237.947054 90.981 123.2990
239.671317 90.965 123.1867
241.408074 90.948 123.0717
243.157416 90.931 122.9563
244.919435 90.914 122.8441
246.694223 90.895 122.7390
248.481871 90.877 122.6448
250.282473 90.858 122.5649
252.096123 90.840 122.5011
253.922915 90.824 122.4520
255.762945 90.810 122.4116
257.616309 90.800 122.3699
259.483103 90.792 122.3163
261.363424 90.786 122.2444
263.257372 90.781 122.1545
265.165043 90.775 122.0523
267.086538 90.767 121.9455
269.021957 90.758 121.8412
270.971401 90.749 121.7440
272.934972 90.740 121.6549
274.912771 90.732 121.5732
276.904902 90.726 121.4967
278.911469 90.721 121.4237
280.932577 90.718 121.3522
282.968330 90.717 121.2791
285.018835 90.718 121.1992
287.084199 90.721 121.1055
289.164530 90.725 120.9923
291.259935 90.729 120.8583
293.370525 90.731 120.7087
295.496408 90.729 120.5530
297.637697 90.726 120.4003
299.794503 90.720 120.2560
301.966937 90.714 120.1211
304.155114 90.708 119.9936
306.359147 90.703 119.8701
308.579152 90.700 119.7468
310.815244 90.698 119.6212
313.067539 90.696 119.4919
315.336156 90.695 119.3601
317.621211 90.695 119.2284
319.922826 90.693 119.0998
322.241118 90.693 118.9751
324.576210 90.693 118.8524
326.928223 90.694 118.7285
329.297280 90.696 118.6010
331.683504 90.699 118.4682
334.087019 90.703 118.3297
336.507952 90.707 118.1855
338.946427 90.711 118.0359
341.402572 90.715 117.8827
343.876516 90.718 117.7285
346.368387 90.720 117.5760
348.878315 90.723 117.4271
351.406431 90.725 117.2819
353.952867 90.728 117.1391
356.517756 90.731 116.9972
359.101230 90.735 116.8549
361.703426 90.739 116.7119
364.324478 90.743 116.5688
366.964523 90.748 116.4264
369.623699 90.754 116.2854
372.302145 90.760 116.1457
375.000000 90.767 116.0068
377.717405 90.775 115.8681
380.454501 90.784 115.7288
383.211431 90.793 115.5880
385.988339 90.803 115.4451
388.785369 90.813 115.3002
391.602668 90.824 115.1535
394.440383 90.836 115.0055
397.298660 90.848 114.8564
400.177650 90.861 114.7061
403.077502 90.874 114.5536
405.998368 90.888 114.3982
408.940400 90.902 114.2396
411.903750 90.915 114.0795
414.888575 90.928 113.9211
417.895028 90.941 113.7676
420.923268 90.953 113.6213
423.973452 90.966 113.4826
427.045738 90.981 113.3497
430.140287 90.997 113.2182
433.257261 91.015 113.0826
436.396822 91.035 112.9392
439.559133 91.055 112.7878
442.744360 91.078 112.6289
445.952668 91.101 112.4614
449.184225 91.126 112.2815
452.439199 91.151 112.0840
455.717760 91.176 111.8656
459.020079 91.198 111.6296
462.346327 91.217 111.3860
465.696680 91.233 111.1461
469.071310 91.247 110.9174
472.470394 91.261 110.7015
475.894109 91.274 110.4960
479.342634 91.288 110.2955
482.816148 91.303 110.0945
486.314833 91.317 109.8913
489.838871 91.330 109.6900
493.388445 91.343 109.4985
496.963741 91.355 109.3210
500.564945 91.369 109.1544
504.192245 91.385 108.9910
507.845830 91.402 108.8238
511.525890 91.419 108.6494
515.232618 91.436 108.4687
518.966206 91.452 108.2847
522.726849 91.468 108.1020
526.514743 91.482 107.9250
530.330086 91.497 107.7558
534.173076 91.513 107.5925
538.043915 91.529 107.4307
541.942803 91.546 107.2679
545.869944 91.564 107.1047
549.825542 91.582 106.9420
553.809805 91.600 106.7787
557.822939 91.619 106.6119
561.865154 91.638 106.4396
565.936660 91.657 106.2620
570.037671 91.675 106.0818
574.168399 91.692 105.9021
578.329060 91.708 105.7248
582.519870 91.724 105.5497
586.741049 91.740 105.3770
590.992817 91.755 105.2087
595.275394 91.770 105.0476
599.589005 91.786 104.8928
603.933874 91.803 104.7404
608.310228 91.819 104.5864
612.718295 91.836 104.4293
617.158304 91.853 104.2715
621.630488 91.868 104.1184
626.135079 91.883 103.9763
630.672311 91.898 103.8477
635.242423 91.915 103.7295
639.845651 91.933 103.6157
644.482237 91.953 103.5041
649.152421 91.975 103.3953
653.856447 91.998 103.2879
658.594560 92.024 103.1755
663.367008 92.052 103.0485
668.174039 92.080 102.8990
673.015903 92.107 102.7267
677.892854 92.133 102.5383
682.805145 92.155 102.3419
687.753032 92.175 102.1439
692.736774 92.193 101.9490
697.756631 92.210 101.7617
702.812863 92.226 101.5843
707.905735 92.242 101.4153
713.035511 92.258 101.2511
718.202461 92.275 101.0884
723.406852 92.292 100.9266
728.648956 92.309 100.7671
733.929047 92.325 100.6112
739.247399 92.341 100.4601
744.604290 92.356 100.3144
750.000000 92.371 100.1748
755.434809 92.386 100.0425
760.909001 92.401 99.9185
766.422861 92.417 99.8031
771.976677 92.434 99.6949
777.570739 92.452 99.5914
783.205337 92.471 99.4908
788.880766 92.491 99.3931
794.597321 92.512 99.3008
800.355301 92.533 99.2162
806.155005 92.556 99.1386
811.996736 92.582 99.0632
817.880799 92.610 98.9825
823.807501 92.641 98.8885
829.777150 92.673 98.7737
835.790057 92.705 98.6355
841.846536 92.735 98.4788
847.946903 92.762 98.3125
854.091476 92.787 98.1434
860.280575 92.810 97.9748
866.514523 92.832 97.8093
872.793644 92.852 97.6506
879.118267 92.873 97.4999
885.488720 92.895 97.3550
891.905336 92.917 97.2138
898.368450 92.940 97.0769
904.878398 92.964 96.9467
911.435520 92.987 96.8241
918.040157 93.012 96.7071
924.692655 93.038 96.5927
931.393359 93.064 96.4772
938.142619 93.092 96.3570
944.940787 93.121 96.2302
951.788218 93.149 96.0976
958.685268 93.177 95.9613
965.632296 93.204 95.8236
972.629666 93.231 95.6868
979.677741 93.258 95.5515
986.776890 93.284 95.4171
993.927482 93.311 95.2849
1001.129891 93.337 95.1597
1008.384491 93.364 95.0457
1015.691660 93.393 94.9417
1023.051781 93.424 94.8428
1030.465236 93.459 94.7416
1037.932411 93.496 94.6273
1045.453698 93.536 94.4879
1053.029486 93.576 94.3176
1060.660172 93.614 94.1193
1068.346153 93.650 93.9003
1076.087829 93.682 93.6694
1083.885605 93.711 93.4326
1091.739887 93.738 93.1928
1099.651084 93.762 92.9513
1107.619609 93.785 92.7101
1115.645878 93.806 92.4717
1123.730308 93.825 92.2388
1131.873321 93.842 92.0135
1140.075341 93.857 91.7974
1148.336797 93.871 91.5916
1156.658119 93.885 91.3967
1165.039741 93.897 91.2140
1173.482099 93.910 91.0450
1181.985634 93.924 90.8897
1190.550789 93.939 90.7423
1199.178011 93.956 90.5920
1207.867749 93.975 90.4268
1216.620457 93.993 90.2403
1225.436590 94.009 90.0352
1234.316609 94.022 89.8192
1243.260976 94.032 89.6010
1252.270157 94.038 89.3881
1261.344623 94.041 89.1849
1270.484846 94.043 88.9933
1279.691303 94.043 88.8152
1288.964474 94.041 88.6524
1298.304842 94.039 88.5046
1307.712894 94.036 88.3689
1317.189120 94.033 88.2415
1326.734016 94.029 88.1205
1336.348077 94.024 88.0063
1346.031806 94.018 87.9017
1355.785708 94.009 87.8102
1365.610290 94.000 87.7355
1375.506065 93.989 87.6818
1385.473549 93.978 87.6542
1395.513261 93.969 87.6539
1405.625726 93.962 87.6757
1415.811469 93.959 87.7076
1426.071023 93.959 87.7349
1436.404921 93.961 87.7474
1446.813703 93.963 87.7440
1457.297912 93.964 87.7293
1467.858093 93.964 87.7097
1478.494798 93.963 87.6902
1489.208581 93.960 87.6748
1500.000000 93.957 87.6677
1510.869618 93.952 87.6725
1521.818002 93.947 87.6920
1532.845723 93.941 87.7281
1543.953355 93.936 87.7821
1555.141477 93.933 87.8544
1566.410674 93.933 87.9409
1577.761531 93.936 88.0311
1589.194642 93.943 88.1111
1600.710601 93.951 88.1714
1612.310010 93.960 88.2106
1623.993473 93.968 88.2336
1635.761599 93.975 88.2476
1647.615002 93.980 88.2592
1659.554299 93.984 88.2737
1671.580114 93.987 88.2947
1683.693072 93.990 88.3231
1695.893807 93.992 88.3571
1708.182952 93.994 88.3949
1720.561150 93.994 88.4378
1733.029045 93.993 88.4896
1745.587288 93.990 88.5555
1758.236533 93.985 88.6415
1770.977440 93.981 88.7518
1783.810673 93.979 88.8844
1796.736900 93.980 89.0291
1809.756796 93.985 89.1707
1822.871040 93.993 89.2974
1836.080315 94.003 89.4048
1849.385310 94.014 89.4934
1862.786718 94.024 89.5661
1876.285239 94.033 89.6273
1889.881575 94.041 89.6823
1903.576436 94.047 89.7370
1917.370535 94.051 89.7979
1931.264593 94.053 89.8710
1945.259332 94.056 89.9599
1959.355483 94.058 90.0640
1973.553781 94.061 90.1799
1987.854965 94.065 90.3076
2002.259781 94.070 90.4509
2016.768981 94.076 90.6134
2031.383320 94.087 90.7934
2046.103561 94.103 90.9818
2060.930471 94.126 91.1638
2075.864823 94.154 91.3217
2090.907395 94.186 91.4407
2106.058972 94.219 91.5146
2121.320344 94.251 91.5475
2136.692305 94.280 91.5518
2152.175658 94.308 91.5429
2167.771210 94.334 91.5305
2183.479774 94.361 91.5142
2199.302169 94.389 91.4862
2215.239219 94.417 91.4393
2231.291755 94.446 91.3705
2247.460615 94.474 91.2816
2263.746641 94.499 91.1793
2280.150683 94.521 91.0728
2296.673595 94.539 90.9718
2313.316238 94.556 90.8821
2330.079481 94.573 90.8017
2346.964198 94.591 90.7192
2363.971268 94.613 90.6190
2381.101578 94.636 90.4892
2398.356022 94.660 90.3251
2415.735498 94.685 90.1277
2433.240913 94.708 89.9012
2450.873180 94.729 89.6489
2468.633217 94.747 89.3729
2486.521951 94.763 89.0759
2504.540314 94.775 88.7639
2522.689246 94.784 88.4464
2540.969692 94.790 88.1331
2559.382606 94.796 87.8262
2577.928947 94.803 87.5187
2596.609683 94.811 87.1994
2615.425787 94.819 86.8588
2634.378241 94.826 86.4918
2653.468031 94.832 86.0990
2672.696154 94.835 85.6859
2692.063613 94.836 85.2605
2711.571415 94.836 84.8276
2731.220579 94.835 84.3838
2751.012130 94.836 83.9189
2770.947098 94.836 83.4215
2791.026522 94.837 82.8831
2811.251451 94.835 82.2995
2831.622938 94.830 81.6698
2852.142045 94.822 80.9944
2872.809842 94.808 80.2759
2893.627406 94.788 79.5203
2914.595823 94.761 78.7379
2935.716186 94.728 77.9388
2956.989596 94.687 77.1271
2978.417161 94.642 76.3017
3000.000000 94.589 75.4605
3021.739237 94.529 74.6045
3043.636005 94.461 73.7407
3065.691446 94.384 72.8830
3087.906710 94.298 72.0491
3110.282955 94.205 71.2537
3132.821347 94.108 70.5037
3155.523062 94.009 69.8003
3178.389283 93.908 69.1430
3201.421202 93.806 68.5319
3224.620020 93.702 67.9675
3247.986946 93.596 67.4494
3271.523198 93.489 66.9763
3295.230004 93.381 66.5471
3319.108599 93.274 66.1596
3343.160228 93.173 65.8063
3367.386145 93.079 65.4745
3391.787613 92.996 65.1500
3416.365904 92.924 64.8204
3441.122300 92.861 64.4789
3466.058091 92.807 64.1228
3491.174576 92.763 63.7500
3516.473066 92.729 63.3518
3541.954880 92.706 62.9137
3567.621345 92.694 62.4195
3593.473800 92.691 61.8553
3619.513592 92.696 61.2114
3645.742080 92.705 60.4826
3672.160630 92.718 59.6707
3698.770620 92.732 58.7834
3725.573436 92.747 57.8296
3752.570477 92.763 56.8146
3779.763150 92.781 55.7405
3807.152872 92.800 54.6093
3834.741071 92.818 53.4270
3862.529185 92.838 52.2041
3890.518664 92.859 50.9504
3918.710966 92.883 49.6697
3947.107561 92.913 48.3588
3975.709929 92.949 47.0101
4004.519563 92.992 45.6131
4033.537962 93.041 44.1578
4062.766641 93.095 42.6396
4092.207123 93.151 41.0600
4121.860942 93.210 39.4223
4151.729646 93.268 37.7286
4181.814790 93.323 35.9843
4212.117944 93.371 34.2071
4242.640687 93.409 32.4354
4273.384610 93.439 30.7238
4304.351317 93.467 29.1241
4335.542421 93.503 27.6582
4366.959549 93.558 26.2999
4398.604338 93.638 24.9891
4430.478438 93.738 23.6699
4462.583511 93.855 22.3202
4494.921231 93.985 20.9477
4527.493283 94.128 19.5663
4560.301365 94.286 18.1754
4593.347189 94.459 16.7584
4626.632476 94.647 15.2933
4660.158962 94.847 13.7633
4693.928395 95.056 12.1560
4727.942535 95.272 10.4628
4762.203156 95.490 8.6771
4796.712043 95.708 6.7958
4831.470996 95.920 4.8223
4866.481826 96.123 2.7711
4901.746360 96.314 0.6648
4937.266434 96.490 -1.4716
4973.043902 96.651 -3.6128
5009.080628 96.797 -5.7316
5045.378492 96.927 -7.7990
5081.939384 97.047 -9.7900
5118.765212 97.158 -11.6896
5155.857894 97.266 -13.4955
5193.219366 97.373 -15.2188
5230.851574 97.481 -16.8772
5268.756481 97.592 -18.4894
5306.936062 97.705 -20.0737
5345.392309 97.819 -21.6489
5384.127225 97.932 -23.2307
5423.142830 98.041 -24.8270
5462.441159 98.144 -26.4374
5502.024259 98.241 -28.0566
5541.894195 98.329 -29.6793
5582.053045 98.409 -31.3040
5622.502902 98.479 -32.9303
5663.245876 98.539 -34.5556
5704.284090 98.588 -36.1751
5745.619684 98.625 -37.7831
5787.254813 98.649 -39.3715
5829.191647 98.659 -40.9264
5871.432373 98.655 -42.4282
5913.979192 98.639 -43.8553
5956.834323 98.610 -45.1897
6000.000000 98.573 -46.4196
6043.478473 98.528 -47.5381
6087.272010 98.479 -48.5422
6131.382892 98.427 -49.4329
6175.813420 98.373 -50.2146
6220.565910 98.318 -50.8906
6265.642695 98.263 -51.4602
6311.046124 98.207 -51.9201
6356.778566 98.153 -52.2684
6402.842404 98.099 -52.5074
6449.240040 98.048 -52.6436
6495.973891 98.000 -52.6879
6543.046396 97.957 -52.6564
6590.460007 97.919 -52.5668
6638.217197 97.888 -52.4331
6686.320456 97.863 -52.2631
6734.772290 97.843 -52.0601
6783.575226 97.827 -51.8265
6832.731809 97.814 -51.5662
6882.244600 97.804 -51.2855
6932.116181 97.797 -50.9974
6982.349153 97.793 -50.7183
7032.946133 97.792 -50.4608
7083.909760 97.794 -50.2297
7135.242690 97.797 -50.0251
7186.947600 97.801 -49.8464
7239.027185 97.804 -49.6956
7291.484160 97.806 -49.5784
7344.321260 97.809 -49.5035
7397.541239 97.809 -49.4778
7451.146872 97.804 -49.5006
7505.140954 97.793 -49.5631
7559.526299 97.772 -49.6520
7614.305743 97.741 -49.7529
7669.482141 97.698 -49.8535
7725.058371 97.645 -49.9481
7781.037328 97.581 -50.0357
7837.421932 97.506 -50.1145
7894.215122 97.419 -50.1763
7951.419859 97.320 -50.2069
8009.039125 97.208 -50.1869
8067.075924 97.085 -50.0967
8125.533282 96.951 -49.9229
8184.414245 96.809 -49.6602
8243.721885 96.659 -49.3047
8303.459292 96.501 -48.8494
8363.629581 96.337 -48.2835
8424.235888 96.166 -47.5945
8485.281374 95.993 -46.7739
8546.769221 95.820 -45.8234
8608.702634 95.650 -44.7527
8671.084842 95.485 -43.5735
8733.919097 95.326 -42.2938
8797.208675 95.176 -40.9176
8860.956876 95.036 -39.4474
8925.167022 94.910 -37.8921
8989.842461 94.800 -36.2704
9054.986566 94.707 -34.6066
9120.602731 94.631 -32.9246
9186.694378 94.571 -31.2433
9253.264952 94.527 -29.5770
9320.317925 94.498 -27.9412
9387.856790 94.483 -26.3583
9455.885071 94.482 -24.8558
9524.406312 94.493 -23.4598
9593.424086 94.513 -22.1879
9662.941992 94.537 -21.0465
9732.963653 94.564 -20.0369
9803.492719 94.590 -19.1602
9874.532869 94.611 -18.4177
9946.087805 94.626 -17.8074
10018.161257 94.628 -17.3177
10090.756983 94.616 -16.9291
10163.878768 94.588 -16.6218
10237.530423 94.542 -16.3822
10311.715789 94.479 -16.2031
10386.438732 94.395 -16.0775
10461.703149 94.290 -15.9926
10537.512962 94.161 -15.9303
10613.872125 94.007 -15.8721
10690.784618 93.826 -15.8009
10768.254450 93.618 -15.6969
10846.285661 93.378 -15.5287
10924.882318 93.107 -15.2515
11004.048518 92.803 -14.8136
11083.788390 92.471 -14.1655
11164.106090 92.114 -13.2661
11245.005805 91.739 -12.0819
11326.491752 91.351 -10.5862
11408.568180 90.959 -8.7641
11491.239368 90.572 -6.6191
11574.509626 90.198 -4.1754
11658.383294 89.843 -1.4691
11742.864745 89.514 1.4590
11827.958384 89.214 4.5665
11913.668646 88.946 7.8051
12000.000000 88.711 11.1237
12086.956947 88.509 14.4775
12174.544019 88.337 17.8339
12262.765784 88.194 21.1683
12351.626840 88.076 24.4578
12441.131819 87.982 27.6818
12531.285389 87.908 30.8289
12622.092249 87.850 33.8987
12713.557132 87.808 36.8956
12805.684808 87.779 39.8228
12898.480079 87.765 42.6838
12991.947783 87.764 45.4856
13086.092792 87.779 48.2328
13180.920015 87.812 50.9190
13276.434395 87.867 53.5235
13372.640911 87.947 56.0150
13469.544580 88.054 58.3519
13567.150452 88.190 60.4766
13665.463617 88.355 62.3152
13764.489200 88.544 63.7868
13864.232362 88.750 64.8148
13964.698305 88.963 65.3322
14065.892266 89.169 65.2868
14167.819519 89.349 64.6522
14270.485380 89.484 63.4387
14373.895200 89.553 61.6964
14478.054370 89.538 59.5154
14582.968320 89.420 57.0266
14688.642520 89.189 54.3965
14795.082478 88.838 51.8114
14902.293745 88.371 49.4561
15010.281908 87.796 47.4994
15119.052599 87.127 46.0841
15228.611486 86.381 45.3188
15338.964283 85.581 45.2730
15450.116741 84.748 45.9781
15562.074656 83.906 47.4300
15674.843864 83.078 49.5881
15788.430244 82.286 52.3737
15902.839718 81.549 55.6713
16018.078250 80.885 59.3344
16134.151848 80.303 63.1945
16251.066563 79.808 67.0769
16368.828491 79.398 70.8278
16487.443769 79.064 74.3317
16606.918584 78.796 77.5115
16727.259161 78.584 80.3187
16848.471777 78.420 82.7164
16970.562748 78.298 84.6594
17093.538442 78.212 86.0825
17217.405268 78.153 86.9053
17342.169684 78.110 87.0438
17467.838194 78.063 86.4283
17594.417350 77.983 85.0312
17721.913751 77.838 82.8934
17850.334044 77.590 80.1411
17979.684923 77.207 76.9945
18109.973131 76.665 73.7528
18241.205462 75.962 70.7422
18373.388756 75.116 68.2327
18506.529905 74.166 66.3547
18640.635849 73.160 65.0524
18775.713581 72.144 64.1134
18911.770141 71.143 63.2779
19048.812624 70.160 62.3685
19186.848172 69.178 61.3670
19325.883983 68.175 60.4079
19465.927305 67.146 59.7011
19606.985439 66.114 59.4214
19749.065738 65.150 59.5991
19892.175609 64.372 60.0512
20036.322514 63.928 60.4285
