* Measurement data measured by REW V5.31.3
* Source: EXCL: Microphone (USB Sound Device        ), no input selected, R, volume: 0.390
* Format: 256k Log Swept Sine, 1 sweep at -12.0 dBFS with no timing reference
* Dated: Jul 23, 2025 12:00:02 AM
* REW Settings:
*  C-weighting compensation: Off
*  Target level: 75.0 dB
* Note: Unique Melody Indigo L
* Measurement: L UM Indigo
* Smoothing: 1/12 octave
* Frequency Step: 96 ppo
* Start Frequency: 0.36621094 Hz
*
* Freq(Hz) SPL(dB) Phase(degrees)
0.366211 90.135 -74.6198
0.368865 90.147 -74.6806
0.371538 90.164 -74.7713
0.374230 90.186 -74.8846
0.376942 90.210 -75.0144
0.379673 90.235 -75.1559
0.382424 90.262 -75.3061
0.385196 90.290 -75.4633
0.387987 90.318 -75.6263
0.390798 90.346 -75.7944
0.393630 90.375 -75.9674
0.396483 90.404 -76.1451
0.399356 90.433 -76.3273
0.402250 90.462 -76.5140
0.405165 90.492 -76.7052
0.408101 90.522 -76.9008
0.411058 90.552 -77.1009
0.414037 90.582 -77.3053
0.417037 90.612 -77.5141
0.420059 90.643 -77.7272
0.423103 90.674 -77.9446
0.426169 90.705 -78.1663
0.429257 90.736 -78.3921
0.432368 90.768 -78.6222
0.435501 90.799 -78.8563
0.438656 90.831 -79.0945
0.441835 90.864 -79.3368
0.445037 90.896 -79.5830
0.448262 90.929 -79.8331
0.451510 90.962 -80.0871
0.454782 90.995 -80.3448
0.458077 91.028 -80.6063
0.461397 91.062 -80.8714
0.464740 91.096 -81.1401
0.468108 91.130 -81.4123
0.471500 91.165 -81.6880
0.474917 91.199 -81.9669
0.478358 91.234 -82.2492
0.481825 91.269 -82.5346
0.485316 91.305 -82.8231
0.488833 91.340 -83.1146
0.492375 91.376 -83.4090
0.495943 91.412 -83.7062
0.499537 91.449 -84.0062
0.503157 91.486 -84.3088
0.506803 91.523 -84.6139
0.510475 91.560 -84.9214
0.514175 91.597 -85.2313
0.517900 91.635 -85.5434
0.521653 91.673 -85.8576
0.525434 91.712 -86.1738
0.529241 91.750 -86.4919
0.533076 91.789 -86.8119
0.536939 91.828 -87.1335
0.540830 91.868 -87.4567
0.544749 91.907 -87.7814
0.548696 91.947 -88.1075
0.552673 91.988 -88.4348
0.556677 92.028 -88.7633
0.560711 92.069 -89.0928
0.564774 92.111 -89.4232
0.568867 92.152 -89.7546
0.572989 92.194 -90.0866
0.577141 92.236 -90.4193
0.581324 92.278 -90.7524
0.585536 92.321 -91.0860
0.589779 92.364 -91.4200
0.594053 92.408 -91.7541
0.598358 92.451 -92.0883
0.602694 92.495 -92.4226
0.607061 92.539 -92.7568
0.611460 92.584 -93.0909
0.615891 92.629 -93.4247
0.620354 92.674 -93.7581
0.624849 92.720 -94.0912
0.629377 92.766 -94.4237
0.633938 92.812 -94.7556
0.638532 92.859 -95.0869
0.643159 92.906 -95.4174
0.647819 92.953 -95.7471
0.652514 93.001 -96.0759
0.657242 93.049 -96.4037
0.662005 93.097 -96.7306
0.666802 93.146 -97.0563
0.671634 93.195 -97.3809
0.676501 93.244 -97.7043
0.681403 93.294 -98.0265
0.686341 93.344 -98.3474
0.691314 93.394 -98.6670
0.696324 93.445 -98.9852
0.701370 93.495 -99.3022
0.706452 93.546 -99.6178
0.711571 93.597 -99.9323
0.716728 93.647 -100.2458
0.721921 93.697 -100.5587
0.727153 93.745 -100.8716
0.732422 93.790 -101.1851
0.737729 93.834 -101.5000
0.743075 93.875 -101.8173
0.748460 93.914 -102.1375
0.753883 93.952 -102.4611
0.759346 93.989 -102.7883
0.764849 94.025 -103.1192
0.770391 94.060 -103.4538
0.775974 94.095 -103.7921
0.781597 94.130 -104.1339
0.787261 94.164 -104.4790
0.792966 94.198 -104.8275
0.798712 94.231 -105.1790
0.804500 94.264 -105.5334
0.810329 94.297 -105.8907
0.816201 94.329 -106.2505
0.822116 94.361 -106.6128
0.828073 94.393 -106.9773
0.834074 94.424 -107.3440
0.840118 94.454 -107.7125
0.846206 94.485 -108.0828
0.852338 94.515 -108.4546
0.858514 94.544 -108.8278
0.864735 94.573 -109.2022
0.871001 94.602 -109.5775
0.877313 94.630 -109.9537
0.883670 94.657 -110.3305
0.890074 94.685 -110.7076
0.896524 94.712 -111.0850
0.903020 94.738 -111.4624
0.909564 94.764 -111.8397
0.916155 94.790 -112.2165
0.922794 94.815 -112.5928
0.929481 94.839 -112.9683
0.936216 94.863 -113.3429
0.943000 94.887 -113.7162
0.949834 94.911 -114.0882
0.956717 94.933 -114.4585
0.963649 94.956 -114.8271
0.970632 94.978 -115.1937
0.977666 94.999 -115.5580
0.984750 95.021 -115.9200
0.991886 95.041 -116.2793
0.999074 95.061 -116.6357
1.006314 95.081 -116.9891
1.013606 95.101 -117.3393
1.020951 95.120 -117.6859
1.028349 95.138 -118.0289
1.035801 95.156 -118.3679
1.043307 95.174 -118.7029
1.050867 95.191 -119.0336
1.058482 95.208 -119.3599
1.066152 95.224 -119.6818
1.073878 95.240 -119.9993
1.081660 95.256 -120.3127
1.089498 95.271 -120.6225
1.097393 95.285 -120.9297
1.105345 95.299 -121.2352
1.113355 95.312 -121.5402
1.121423 95.324 -121.8457
1.129549 95.336 -122.1524
1.137734 95.346 -122.4609
1.145979 95.356 -122.7714
1.154283 95.365 -123.0841
1.162647 95.373 -123.3990
1.171072 95.379 -123.7161
1.179558 95.385 -124.0353
1.188106 95.391 -124.3566
1.196715 95.395 -124.6797
1.205387 95.398 -125.0046
1.214122 95.400 -125.3311
1.222920 95.402 -125.6590
1.231782 95.402 -125.9881
1.240708 95.402 -126.3181
1.249699 95.400 -126.6489
1.258754 95.398 -126.9800
1.267876 95.395 -127.3113
1.277063 95.391 -127.6424
1.286318 95.386 -127.9729
1.295639 95.380 -128.3024
1.305027 95.373 -128.6304
1.314484 95.365 -128.9565
1.324009 95.357 -129.2803
1.333604 95.347 -129.6011
1.343268 95.337 -129.9183
1.353002 95.326 -130.2314
1.362806 95.315 -130.5397
1.372681 95.302 -130.8424
1.382628 95.289 -131.1388
1.392647 95.274 -131.4282
1.402739 95.260 -131.7097
1.412904 95.244 -131.9826
1.423142 95.228 -132.2462
1.433455 95.210 -132.4997
1.443843 95.192 -132.7428
1.454305 95.173 -132.9754
1.464844 95.153 -133.1976
1.475459 95.131 -133.4101
1.486150 95.108 -133.6136
1.496920 95.083 -133.8087
1.507767 95.057 -133.9959
1.518693 95.028 -134.1754
1.529698 94.998 -134.3474
1.540783 94.966 -134.5117
1.551948 94.932 -134.6684
1.563194 94.897 -134.8172
1.574521 94.860 -134.9580
1.585931 94.821 -135.0904
1.597423 94.782 -135.2142
1.608999 94.741 -135.3291
1.620658 94.699 -135.4348
1.632402 94.656 -135.5309
1.644232 94.612 -135.6170
1.656146 94.568 -135.6928
1.668147 94.523 -135.7578
1.680235 94.478 -135.8116
1.692411 94.432 -135.8537
1.704675 94.386 -135.8837
1.717028 94.341 -135.9010
1.729470 94.295 -135.9050
1.742003 94.250 -135.8953
1.754626 94.206 -135.8711
1.767341 94.162 -135.8319
1.780147 94.120 -135.7769
1.793047 94.078 -135.7052
1.806040 94.037 -135.6158
1.819128 93.997 -135.5075
1.832310 93.957 -135.3787
1.845587 93.918 -135.2280
1.858961 93.878 -135.0539
1.872432 93.838 -134.8553
1.886001 93.797 -134.6316
1.899667 93.755 -134.3823
1.913433 93.713 -134.1074
1.927299 93.671 -133.8069
1.941265 93.628 -133.4811
1.955332 93.585 -133.1305
1.969501 93.543 -132.7556
1.983773 93.502 -132.3571
1.998148 93.461 -131.9359
2.012627 93.422 -131.4930
2.027212 93.385 -131.0294
2.041902 93.350 -130.5467
2.056698 93.317 -130.0461
2.071602 93.288 -129.5295
2.086614 93.261 -128.9986
2.101734 93.239 -128.4552
2.116964 93.220 -127.9015
2.132304 93.206 -127.3391
2.147756 93.198 -126.7695
2.163320 93.194 -126.1937
2.178996 93.197 -125.6116
2.194786 93.206 -125.0222
2.210690 93.220 -124.4234
2.226710 93.241 -123.8133
2.242845 93.269 -123.1906
2.259098 93.302 -122.5553
2.275468 93.341 -121.9086
2.291957 93.385 -121.2526
2.308566 93.435 -120.5901
2.325295 93.490 -119.9243
2.342145 93.550 -119.2589
2.359117 93.614 -118.5973
2.376212 93.682 -117.9433
2.393431 93.753 -117.3006
2.410775 93.828 -116.6728
2.428244 93.906 -116.0635
2.445840 93.987 -115.4760
2.463564 94.070 -114.9134
2.481416 94.155 -114.3787
2.499397 94.241 -113.8742
2.517509 94.329 -113.4016
2.535752 94.419 -112.9617
2.554127 94.511 -112.5543
2.572635 94.606 -112.1784
2.591277 94.703 -111.8321
2.610055 94.804 -111.5135
2.628968 94.908 -111.2214
2.648019 95.016 -110.9548
2.667208 95.128 -110.7130
2.686535 95.243 -110.4960
2.706003 95.360 -110.3036
2.725612 95.479 -110.1357
2.745363 95.600 -109.9924
2.765257 95.721 -109.8735
2.785295 95.843 -109.7790
2.805478 95.965 -109.7091
2.825808 96.085 -109.6636
2.846285 96.204 -109.6427
2.866910 96.321 -109.6466
2.887685 96.435 -109.6756
2.908611 96.547 -109.7301
2.929688 96.656 -109.8107
2.950917 96.762 -109.9177
2.972301 96.867 -110.0511
2.993839 96.969 -110.2102
3.015534 97.070 -110.3939
3.037386 97.170 -110.6005
3.059396 97.267 -110.8282
3.081565 97.363 -111.0749
3.103896 97.457 -111.3384
3.126388 97.550 -111.6167
3.149043 97.640 -111.9077
3.171862 97.728 -112.2097
3.194847 97.813 -112.5210
3.217998 97.896 -112.8404
3.241317 97.975 -113.1676
3.264805 98.052 -113.5027
3.288463 98.126 -113.8467
3.312293 98.197 -114.2014
3.336295 98.265 -114.5686
3.360471 98.329 -114.9492
3.384822 98.390 -115.3433
3.409350 98.448 -115.7500
3.434056 98.502 -116.1674
3.458940 98.554 -116.5933
3.484005 98.603 -117.0250
3.509252 98.649 -117.4598
3.534681 98.692 -117.8949
3.560295 98.733 -118.3279
3.586094 98.771 -118.7566
3.612081 98.806 -119.1798
3.638255 98.839 -119.5969
3.664620 98.869 -120.0086
3.691175 98.896 -120.4164
3.717923 98.920 -120.8219
3.744864 98.941 -121.2263
3.772001 98.959 -121.6297
3.799335 98.974 -122.0317
3.826866 98.986 -122.4309
3.854597 98.995 -122.8257
3.882529 99.003 -123.2141
3.910664 99.009 -123.5939
3.939002 99.013 -123.9629
3.967546 99.015 -124.3193
3.996296 99.017 -124.6614
4.025255 99.017 -124.9884
4.054423 99.015 -125.3001
4.083804 99.012 -125.5970
4.113396 99.007 -125.8799
4.143204 99.000 -126.1493
4.173227 98.992 -126.4059
4.203468 98.983 -126.6503
4.233928 98.974 -126.8827
4.264609 98.964 -127.1033
4.295512 98.954 -127.3121
4.326639 98.945 -127.5086
4.357992 98.937 -127.6922
4.389572 98.930 -127.8622
4.421380 98.924 -128.0177
4.453419 98.919 -128.1583
4.485691 98.915 -128.2843
4.518196 98.912 -128.3969
4.550936 98.910 -128.4980
4.583914 98.909 -128.5902
4.617131 98.909 -128.6761
4.650589 98.912 -128.7583
4.684289 98.916 -128.8391
4.718233 98.922 -128.9200
4.752424 98.931 -129.0018
4.786862 98.942 -129.0844
4.821549 98.956 -129.1676
4.856488 98.972 -129.2515
4.891680 98.991 -129.3372
4.927127 99.011 -129.4264
4.962831 99.033 -129.5216
4.998794 99.057 -129.6256
5.035017 99.082 -129.7410
5.071503 99.108 -129.8702
5.108253 99.136 -130.0148
5.145270 99.164 -130.1757
5.182555 99.193 -130.3529
5.220110 99.224 -130.5462
5.257937 99.255 -130.7550
5.296038 99.287 -130.9791
5.334415 99.319 -131.2183
5.373071 99.351 -131.4727
5.412006 99.382 -131.7428
5.451224 99.412 -132.0289
5.490725 99.440 -132.3318
5.530514 99.467 -132.6517
5.570590 99.493 -132.9886
5.610957 99.517 -133.3414
5.651616 99.540 -133.7084
5.692570 99.561 -134.0874
5.733821 99.579 -134.4762
5.775370 99.596 -134.8726
5.817221 99.610 -135.2752
5.859375 99.622 -135.6832
5.901834 99.631 -136.0965
5.944602 99.637 -136.5148
5.987679 99.640 -136.9371
6.031068 99.641 -137.3618
6.074771 99.640 -137.7863
6.118792 99.637 -138.2078
6.163131 99.631 -138.6240
6.207792 99.623 -139.0328
6.252776 99.613 -139.4332
6.298086 99.601 -139.8247
6.343725 99.587 -140.2071
6.389694 99.572 -140.5799
6.435996 99.556 -140.9423
6.482634 99.538 -141.2932
6.529610 99.520 -141.6313
6.576926 99.502 -141.9556
6.624585 99.485 -142.2653
6.672590 99.467 -142.5603
6.720942 99.450 -142.8413
6.769645 99.433 -143.1095
6.818700 99.417 -143.3664
6.868111 99.403 -143.6134
6.917881 99.390 -143.8517
6.968010 99.380 -144.0822
7.018504 99.371 -144.3054
7.069362 99.365 -144.5225
7.120590 99.360 -144.7353
7.172189 99.358 -144.9461
7.224161 99.358 -145.1576
7.276511 99.360 -145.3722
7.329239 99.364 -145.5919
7.382350 99.371 -145.8178
7.435845 99.379 -146.0507
7.489729 99.388 -146.2916
7.544002 99.400 -146.5415
7.598669 99.412 -146.8017
7.653732 99.424 -147.0732
7.709194 99.438 -147.3570
7.765058 99.451 -147.6531
7.821327 99.464 -147.9611
7.878004 99.477 -148.2800
7.935091 99.490 -148.6087
7.992592 99.502 -148.9461
8.050510 99.512 -149.2911
8.108847 99.521 -149.6428
8.167607 99.528 -150.0001
8.226793 99.534 -150.3613
8.286408 99.539 -150.7242
8.346454 99.542 -151.0865
8.406936 99.543 -151.4463
8.467856 99.542 -151.8018
8.529218 99.540 -152.1520
8.591024 99.537 -152.4955
8.653278 99.533 -152.8310
8.715983 99.527 -153.1570
8.779143 99.521 -153.4723
8.842760 99.515 -153.7760
8.906839 99.508 -154.0679
8.971381 99.502 -154.3482
9.036392 99.495 -154.6172
9.101873 99.490 -154.8754
9.167829 99.485 -155.1234
9.234263 99.481 -155.3618
9.301178 99.478 -155.5918
9.368578 99.477 -155.8148
9.436467 99.476 -156.0326
9.504847 99.477 -156.2468
9.573723 99.480 -156.4588
9.643099 99.483 -156.6699
9.712976 99.488 -156.8811
9.783361 99.494 -157.0940
9.854255 99.500 -157.3095
9.925663 99.507 -157.5287
9.997588 99.514 -157.7519
10.070035 99.522 -157.9794
10.143007 99.529 -158.2110
10.216507 99.536 -158.4467
10.290540 99.542 -158.6859
10.365109 99.548 -158.9284
10.440219 99.553 -159.1732
10.515873 99.557 -159.4194
10.592076 99.560 -159.6660
10.668830 99.562 -159.9121
10.746141 99.564 -160.1570
10.824012 99.564 -160.3999
10.902447 99.563 -160.6400
10.981451 99.562 -160.8767
11.061027 99.559 -161.1097
11.141180 99.557 -161.3388
11.221913 99.553 -161.5640
11.303232 99.550 -161.7854
11.385140 99.546 -162.0034
11.467641 99.541 -162.2182
11.550741 99.537 -162.4305
11.634442 99.533 -162.6406
11.718750 99.528 -162.8493
11.803669 99.523 -163.0571
11.889203 99.518 -163.2644
11.975357 99.513 -163.4715
12.062136 99.508 -163.6789
12.149543 99.502 -163.8867
12.237583 99.496 -164.0952
12.326262 99.489 -164.3042
12.415583 99.483 -164.5137
12.505552 99.476 -164.7238
12.596172 99.468 -164.9345
12.687449 99.461 -165.1458
12.779387 99.453 -165.3576
12.871992 99.445 -165.5703
12.965268 99.437 -165.7841
13.059220 99.429 -165.9993
13.153852 99.421 -166.2165
13.249170 99.413 -166.4362
13.345179 99.406 -166.6589
13.441884 99.398 -166.8853
13.539289 99.390 -167.1159
13.637401 99.383 -167.3512
13.736223 99.375 -167.5913
13.835761 99.368 -167.8365
13.936021 99.360 -168.0865
14.037007 99.351 -168.3412
14.138725 99.342 -168.6000
14.241180 99.333 -168.8623
14.344377 99.324 -169.1272
14.448323 99.314 -169.3940
14.553021 99.303 -169.6617
14.658478 99.293 -169.9295
14.764700 99.282 -170.1969
14.871691 99.271 -170.4633
14.979457 99.261 -170.7285
15.088005 99.251 -170.9925
15.197339 99.241 -171.2556
15.307465 99.233 -171.5181
15.418389 99.224 -171.7808
15.530117 99.217 -172.0442
15.642655 99.211 -172.3091
15.756008 99.205 -172.5761
15.870182 99.200 -172.8456
15.985184 99.196 -173.1178
16.101019 99.192 -173.3927
16.217694 99.188 -173.6700
16.335214 99.184 -173.9493
16.453586 99.181 -174.2298
16.572815 99.177 -174.5105
16.692909 99.174 -174.7906
16.813872 99.170 -175.0692
16.935713 99.166 -175.3455
17.058436 99.163 -175.6188
17.182048 99.159 -175.8888
17.306556 99.156 -176.1552
17.431967 99.153 -176.4181
17.558286 99.151 -176.6777
17.685521 99.148 -176.9342
17.813677 99.146 -177.1880
17.942762 99.144 -177.4393
18.072783 99.142 -177.6882
18.203746 99.140 -177.9350
18.335658 99.138 -178.1794
18.468526 99.135 -178.4212
18.602356 99.133 -178.6603
18.737156 99.130 -178.8962
18.872934 99.126 -179.1287
19.009695 99.123 -179.3577
19.147447 99.119 -179.5831
19.286197 99.114 -179.8052
19.425953 99.110 179.9756
19.566721 99.105 179.7589
19.708510 99.100 179.5441
19.851326 99.095 179.3305
19.995177 99.089 179.1177
20.140070 99.083 178.9050
20.286013 99.077 178.6923
20.433014 99.070 178.4792
20.581080 99.062 178.2657
20.730219 99.054 178.0516
20.880439 99.046 177.8368
21.031747 99.037 177.6212
21.184152 99.027 177.4045
21.337661 99.017 177.1864
21.492282 99.007 176.9666
21.648024 98.997 176.7444
21.804895 98.986 176.5195
21.962902 98.975 176.2916
22.122054 98.964 176.0605
22.282360 98.952 175.8263
22.443827 98.940 175.5889
22.606464 98.928 175.3487
22.770280 98.916 175.1059
22.935283 98.903 174.8608
23.101481 98.891 174.6137
23.268884 98.878 174.3647
23.437500 98.866 174.1136
23.607338 98.854 173.8607
23.778406 98.842 173.6057
23.950714 98.830 173.3487
24.124271 98.819 173.0899
24.299086 98.808 172.8296
24.475167 98.797 172.5683
24.652524 98.787 172.3067
24.831166 98.776 172.0455
25.011103 98.766 171.7853
25.192344 98.756 171.5268
25.374898 98.746 171.2703
25.558775 98.736 171.0161
25.743984 98.727 170.7642
25.930536 98.719 170.5146
26.118439 98.710 170.2673
26.307704 98.702 170.0220
26.498341 98.694 169.7787
26.690359 98.686 169.5372
26.883768 98.679 169.2973
27.078579 98.671 169.0591
27.274801 98.662 168.8226
27.472446 98.654 168.5875
27.671522 98.645 168.3541
27.872042 98.636 168.1223
28.074014 98.626 167.8923
28.277450 98.615 167.6645
28.482360 98.604 167.4388
28.688755 98.592 167.2156
28.896645 98.580 166.9945
29.106042 98.567 166.7754
29.316957 98.554 166.5577
29.529400 98.540 166.3407
29.743382 98.526 166.1237
29.958915 98.512 165.9061
30.176009 98.497 165.6873
30.394677 98.482 165.4672
30.614929 98.467 165.2455
30.836778 98.452 165.0223
31.060234 98.436 164.7973
31.285309 98.421 164.5704
31.512015 98.405 164.3411
31.740364 98.390 164.1090
31.970368 98.374 163.8738
32.202039 98.359 163.6353
32.435388 98.343 163.3938
32.670428 98.328 163.1497
32.907171 98.313 162.9035
33.145630 98.297 162.6561
33.385817 98.281 162.4081
33.627745 98.266 162.1599
33.871425 98.250 161.9120
34.116871 98.234 161.6651
34.364096 98.218 161.4194
34.613113 98.202 161.1757
34.863934 98.186 160.9346
35.116572 98.169 160.6965
35.371041 98.153 160.4617
35.627354 98.136 160.2302
35.885525 98.120 160.0014
36.145566 98.103 159.7750
36.407492 98.086 159.5502
36.671316 98.069 159.3267
36.937051 98.051 159.1046
37.204712 98.033 158.8836
37.474313 98.015 158.6641
37.745867 97.996 158.4460
38.019389 97.977 158.2290
38.294893 97.958 158.0126
38.572394 97.939 157.7963
38.851905 97.919 157.5794
39.133442 97.899 157.3617
39.417019 97.879 157.1432
39.702651 97.859 156.9243
39.990353 97.838 156.7056
40.280140 97.817 156.4874
40.572026 97.797 156.2702
40.866028 97.776 156.0538
41.162160 97.755 155.8378
41.460438 97.735 155.6214
41.760877 97.715 155.4038
42.063494 97.695 155.1846
42.368303 97.675 154.9642
42.675322 97.654 154.7433
42.984565 97.633 154.5235
43.296048 97.612 154.3062
43.609789 97.590 154.0925
43.925804 97.568 153.8829
44.244108 97.545 153.6772
44.564719 97.523 153.4744
44.887654 97.501 153.2735
45.212928 97.479 153.0734
45.540560 97.456 152.8734
45.870565 97.434 152.6733
46.202962 97.411 152.4736
46.537768 97.387 152.2747
46.875000 97.364 152.0770
47.214676 97.340 151.8804
47.556813 97.317 151.6845
47.901429 97.293 151.4886
48.248542 97.270 151.2922
48.598171 97.246 151.0948
48.950334 97.222 150.8967
49.305048 97.198 150.6985
49.662333 97.174 150.5010
50.022206 97.150 150.3051
50.384688 97.125 150.1109
50.749796 97.101 149.9182
51.117550 97.076 149.7269
51.487969 97.051 149.5365
51.861072 97.026 149.3474
52.236879 97.000 149.1598
52.615409 96.974 148.9744
52.996681 96.948 148.7912
53.380717 96.922 148.6103
53.767536 96.895 148.4315
54.157158 96.869 148.2549
54.549603 96.842 148.0810
54.944892 96.815 147.9101
55.343045 96.789 147.7420
55.744084 96.763 147.5753
56.148028 96.739 147.4082
56.554900 96.714 147.2389
56.964720 96.690 147.0663
57.377510 96.667 146.8903
57.793291 96.643 146.7117
58.212085 96.618 146.5314
58.633914 96.594 146.3510
59.058799 96.569 146.1718
59.486764 96.543 145.9953
59.917829 96.517 145.8223
60.352019 96.491 145.6530
60.789354 96.464 145.4869
61.229859 96.438 145.3232
61.673556 96.411 145.1614
62.120468 96.385 145.0015
62.570618 96.359 144.8425
63.024031 96.333 144.6832
63.480729 96.307 144.5218
63.940736 96.282 144.3567
64.404077 96.257 144.1871
64.870776 96.232 144.0123
65.340856 96.206 143.8320
65.814343 96.181 143.6458
66.291261 96.154 143.4541
66.771635 96.126 143.2585
67.255489 96.097 143.0620
67.742850 96.067 142.8677
68.233743 96.036 142.6785
68.728193 96.004 142.4956
69.226226 95.972 142.3187
69.727867 95.940 142.1468
70.233144 95.907 141.9788
70.742083 95.875 141.8144
71.254709 95.842 141.6544
71.771050 95.809 141.5000
72.291132 95.777 141.3515
72.814984 95.745 141.2082
73.342631 95.713 141.0688
73.874102 95.682 140.9325
74.409424 95.651 140.7991
74.948626 95.621 140.6688
75.491734 95.592 140.5403
76.038779 95.563 140.4119
76.589787 95.535 140.2815
77.144788 95.507 140.1478
77.703811 95.480 140.0103
78.266885 95.453 139.8686
78.834039 95.426 139.7213
79.405303 95.399 139.5673
79.980706 95.373 139.4055
80.560280 95.346 139.2357
81.144053 95.318 139.0581
81.732056 95.288 138.8738
82.324320 95.258 138.6842
82.920876 95.225 138.4917
83.521755 95.190 138.2987
84.126988 95.153 138.1079
84.736607 95.114 137.9216
85.350643 95.073 137.7415
85.969129 95.031 137.5684
86.592097 94.988 137.4030
87.219579 94.945 137.2452
87.851608 94.903 137.0947
88.488217 94.863 136.9496
89.129439 94.825 136.8069
89.775308 94.788 136.6644
90.425856 94.754 136.5214
91.081119 94.721 136.3797
91.741131 94.690 136.2417
92.405925 94.659 136.1099
93.075536 94.629 135.9857
93.750000 94.599 135.8697
94.429351 94.569 135.7618
95.113625 94.538 135.6616
95.802858 94.506 135.5677
96.497085 94.472 135.4785
97.196342 94.438 135.3913
97.900667 94.402 135.3033
98.610096 94.366 135.2123
99.324665 94.328 135.1169
100.044413 94.291 135.0170
100.769376 94.254 134.9130
101.499592 94.217 134.8062
102.235100 94.181 134.6978
102.975938 94.146 134.5891
103.722144 94.112 134.4808
104.473757 94.079 134.3734
105.230817 94.047 134.2670
105.993363 94.014 134.1608
106.761435 93.982 134.0532
107.535072 93.949 133.9424
108.314315 93.916 133.8274
109.099206 93.882 133.7081
109.889783 93.848 133.5853
110.686090 93.813 133.4606
111.488167 93.778 133.3356
112.296056 93.742 133.2125
113.109800 93.704 133.0937
113.929440 93.665 132.9824
114.755020 93.622 132.8824
115.586582 93.578 132.7977
116.424170 93.530 132.7316
117.267827 93.482 132.6859
118.117598 93.433 132.6589
118.973527 93.387 132.6446
119.835658 93.345 132.6307
120.704037 93.307 132.6033
121.578708 93.273 132.5556
122.459718 93.240 132.4913
123.347111 93.208 132.4188
124.240935 93.176 132.3458
125.141236 93.144 132.2761
126.048061 93.112 132.2103
126.961458 93.080 132.1466
127.881473 93.047 132.0825
128.808154 93.014 132.0164
129.741551 92.980 131.9483
130.681712 92.946 131.8806
131.628686 92.912 131.8167
132.582521 92.877 131.7600
133.543269 92.844 131.7124
134.510979 92.810 131.6736
135.485701 92.777 131.6429
136.467486 92.743 131.6188
137.456386 92.710 131.5999
138.452451 92.676 131.5845
139.455735 92.643 131.5710
140.466288 92.611 131.5587
141.484165 92.580 131.5467
142.509418 92.550 131.5345
143.542100 92.522 131.5214
144.582265 92.495 131.5061
145.629968 92.469 131.4874
146.685262 92.445 131.4639
147.748204 92.420 131.4342
148.818849 92.396 131.3976
149.897251 92.372 131.3546
150.983469 92.347 131.3066
152.077557 92.323 131.2568
153.179574 92.298 131.2083
154.289576 92.273 131.1623
155.407622 92.249 131.1181
156.533770 92.226 131.0724
157.668078 92.204 131.0207
158.810606 92.182 130.9590
159.961413 92.159 130.8856
161.120559 92.136 130.8007
162.288105 92.111 130.7070
163.464112 92.085 130.6081
164.648640 92.057 130.5080
165.841752 92.027 130.4102
167.043510 91.995 130.3182
168.253976 91.963 130.2347
169.473213 91.929 130.1617
170.701286 91.896 130.0992
171.938258 91.864 130.0450
173.184194 91.833 129.9962
174.439158 91.804 129.9491
175.703216 91.776 129.9013
176.976434 91.750 129.8516
178.258878 91.724 129.8003
179.550615 91.700 129.7480
180.851713 91.675 129.6951
182.162239 91.651 129.6414
183.482262 91.626 129.5857
184.811850 91.601 129.5272
186.151073 91.576 129.4653
187.500000 91.550 129.4005
188.858702 91.523 129.3340
190.227250 91.496 129.2679
191.605715 91.469 129.2042
192.994169 91.441 129.1446
194.392685 91.413 129.0897
195.801334 91.385 129.0400
197.220191 91.357 128.9957
198.649330 91.328 128.9572
200.088825 91.300 128.9248
201.538751 91.273 128.8981
202.999184 91.246 128.8749
204.470200 91.221 128.8517
205.951875 91.196 128.8242
207.444287 91.172 128.7892
208.947514 91.148 128.7462
210.461634 91.123 128.6969
211.986726 91.097 128.6456
213.522869 91.070 128.5975
215.070144 91.043 128.5582
216.628631 91.015 128.5318
218.198411 90.988 128.5193
219.779567 90.963 128.5175
221.372180 90.940 128.5202
222.976334 90.919 128.5206
224.592112 90.900 128.5140
226.219600 90.882 128.4988
227.858880 90.864 128.4750
229.510039 90.847 128.4439
231.173164 90.830 128.4067
232.848340 90.814 128.3646
234.535655 90.797 128.3184
236.235197 90.780 128.2683
237.947054 90.763 128.2148
239.671317 90.746 128.1588
241.408074 90.727 128.1019
243.157416 90.708 128.0466
244.919435 90.688 127.9960
246.694223 90.667 127.9534
248.481871 90.646 127.9215
250.282473 90.624 127.9026
252.096123 90.604 127.8975
253.922915 90.585 127.9044
255.762945 90.568 127.9177
257.616309 90.555 127.9278
259.483103 90.543 127.9247
261.363424 90.533 127.9025
263.257372 90.523 127.8627
265.165043 90.511 127.8122
267.086538 90.497 127.7603
269.021957 90.483 127.7149
270.971401 90.468 127.6809
272.934972 90.453 127.6593
274.912771 90.439 127.6481
276.904902 90.427 127.6447
278.911469 90.416 127.6471
280.932577 90.407 127.6533
282.968330 90.401 127.6605
285.018835 90.397 127.6633
287.084199 90.395 127.6547
289.164530 90.396 127.6284
291.259935 90.396 127.5828
293.370525 90.395 127.5226
295.496408 90.393 127.4565
297.637697 90.390 127.3922
299.794503 90.387 127.3334
301.966937 90.384 127.2794
304.155114 90.382 127.2263
306.359147 90.382 127.1691
308.579152 90.383 127.1027
310.815244 90.384 127.0236
313.067539 90.386 126.9308
315.336156 90.387 126.8268
317.621211 90.386 126.7171
319.922826 90.384 126.6081
322.241118 90.382 126.5039
324.576210 90.379 126.4054
326.928223 90.377 126.3113
329.297280 90.375 126.2192
331.683504 90.373 126.1271
334.087019 90.372 126.0333
336.507952 90.372 125.9367
338.946427 90.371 125.8371
341.402572 90.369 125.7356
343.876516 90.367 125.6342
346.368387 90.365 125.5353
348.878315 90.362 125.4403
351.406431 90.359 125.3492
353.952867 90.357 125.2609
356.517756 90.355 125.1741
359.101230 90.353 125.0877
361.703426 90.352 125.0014
364.324478 90.351 124.9153
366.964523 90.350 124.8299
369.623699 90.349 124.7457
372.302145 90.349 124.6628
375.000000 90.349 124.5813
377.717405 90.350 124.5008
380.454501 90.351 124.4208
383.211431 90.352 124.3408
385.988339 90.354 124.2602
388.785369 90.356 124.1790
391.602668 90.358 124.0972
394.440383 90.362 124.0146
397.298660 90.365 123.9310
400.177650 90.370 123.8461
403.077502 90.374 123.7592
405.998368 90.380 123.6696
408.940400 90.385 123.5770
411.903750 90.389 123.4830
414.888575 90.393 123.3904
417.895028 90.396 123.3031
420.923268 90.399 123.2238
423.973452 90.403 123.1534
427.045738 90.408 123.0907
430.140287 90.415 123.0315
433.257261 90.424 122.9709
436.396822 90.434 122.9055
439.559133 90.445 122.8342
442.744360 90.457 122.7570
445.952668 90.470 122.6719
449.184225 90.484 122.5744
452.439199 90.499 122.4589
455.717760 90.512 122.3228
459.020079 90.524 122.1703
462.346327 90.531 122.0127
465.696680 90.536 121.8624
469.071310 90.538 121.7269
472.470394 90.540 121.6076
475.894109 90.541 121.5015
479.342634 90.543 121.4033
482.816148 90.545 121.3073
486.314833 90.546 121.2117
489.838871 90.546 121.1212
493.388445 90.545 121.0435
496.963741 90.544 120.9830
500.564945 90.543 120.9363
504.192245 90.545 120.8958
507.845830 90.548 120.8546
511.525890 90.551 120.8096
515.232618 90.553 120.7616
518.966206 90.555 120.7140
522.726849 90.556 120.6715
526.514743 90.556 120.6389
530.330086 90.557 120.6182
534.173076 90.558 120.6072
538.043915 90.561 120.6015
541.942803 90.564 120.5986
545.869944 90.568 120.5995
549.825542 90.572 120.6053
553.809805 90.578 120.6148
557.822939 90.584 120.6252
561.865154 90.590 120.6343
565.936660 90.596 120.6426
570.037671 90.601 120.6531
574.168399 90.606 120.6699
578.329060 90.610 120.6949
582.519870 90.614 120.7276
586.741049 90.618 120.7675
590.992817 90.622 120.8163
595.275394 90.626 120.8764
599.589005 90.630 120.9472
603.933874 90.637 121.0248
608.310228 90.644 121.1057
612.718295 90.651 121.1886
617.158304 90.659 121.2757
621.630488 90.666 121.3728
626.135079 90.673 121.4863
630.672311 90.681 121.6188
635.242423 90.691 121.7661
639.845651 90.703 121.9218
644.482237 90.718 122.0826
649.152421 90.735 122.2484
653.856447 90.756 122.4167
658.594560 90.779 122.5806
663.367008 90.806 122.7299
668.174039 90.834 122.8570
673.015903 90.862 122.9618
677.892854 90.889 123.0516
682.805145 90.914 123.1353
687.753032 90.938 123.2197
692.736774 90.960 123.3105
697.756631 90.981 123.4119
702.812863 91.002 123.5255
707.905735 91.024 123.6489
713.035511 91.048 123.7780
718.202461 91.072 123.9093
723.406852 91.097 124.0420
728.648956 91.123 124.1766
733.929047 91.150 124.3136
739.247399 91.178 124.4524
744.604290 91.206 124.5920
750.000000 91.236 124.7318
755.434809 91.267 124.8718
760.909001 91.299 125.0120
766.422861 91.332 125.1522
771.976677 91.367 125.2919
777.570739 91.403 125.4304
783.205337 91.440 125.5672
788.880766 91.477 125.7035
794.597321 91.515 125.8418
800.355301 91.555 125.9839
806.155005 91.596 126.1277
811.996736 91.641 126.2669
817.880799 91.688 126.3924
823.807501 91.738 126.4943
829.777150 91.788 126.5646
835.790057 91.837 126.6015
841.846536 91.883 126.6121
847.946903 91.925 126.6079
854.091476 91.963 126.5981
860.280575 91.998 126.5890
866.514523 92.030 126.5859
872.793644 92.059 126.5952
879.118267 92.087 126.6193
885.488720 92.115 126.6563
891.905336 92.142 126.7038
898.368450 92.169 126.7614
904.878398 92.196 126.8306
911.435520 92.224 126.9116
918.040157 92.253 127.0015
924.692655 92.283 127.0964
931.393359 92.315 127.1921
938.142619 92.347 127.2845
944.940787 92.379 127.3723
951.788218 92.411 127.4565
958.685268 92.442 127.5399
965.632296 92.472 127.6254
972.629666 92.502 127.7157
979.677741 92.530 127.8117
986.776890 92.558 127.9130
993.927482 92.586 128.0208
1001.129891 92.613 128.1393
1008.384491 92.641 128.2720
1015.691660 92.670 128.4182
1023.051781 92.701 128.5731
1030.465236 92.736 128.7291
1037.932411 92.773 128.8748
1045.453698 92.813 128.9983
1053.029486 92.854 129.0943
1060.660172 92.893 129.1663
1068.346153 92.930 129.2227
1076.087829 92.963 129.2731
1083.885605 92.995 129.3237
1091.739887 93.024 129.3773
1099.651084 93.052 129.4345
1107.619609 93.078 129.4963
1115.645878 93.103 129.5639
1123.730308 93.126 129.6384
1131.873321 93.148 129.7210
1140.075341 93.168 129.8126
1148.336797 93.188 129.9138
1156.658119 93.207 130.0250
1165.039741 93.227 130.1470
1173.482099 93.246 130.2814
1181.985634 93.267 130.4276
1190.550789 93.289 130.5796
1199.178011 93.314 130.7264
1207.867749 93.340 130.8564
1216.620457 93.366 130.9638
1225.436590 93.390 131.0526
1234.316609 93.410 131.1312
1243.260976 93.426 131.2085
1252.270157 93.439 131.2921
1261.344623 93.450 131.3864
1270.484846 93.458 131.4935
1279.691303 93.465 131.6153
1288.964474 93.470 131.7537
1298.304842 93.475 131.9082
1307.712894 93.479 132.0759
1317.189120 93.484 132.2528
1326.734016 93.487 132.4368
1336.348077 93.490 132.6281
1346.031806 93.491 132.8294
1355.785708 93.491 133.0447
1365.610290 93.490 133.2780
1375.506065 93.487 133.5341
1385.473549 93.485 133.8178
1395.513261 93.484 134.1306
1405.625726 93.486 134.4671
1415.811469 93.491 134.8152
1426.071023 93.499 135.1597
1436.404921 93.510 135.4903
1446.813703 93.520 135.8062
1457.297912 93.529 136.1127
1467.858093 93.536 136.4164
1478.494798 93.543 136.7227
1489.208581 93.547 137.0356
1500.000000 93.551 137.3592
1510.869618 93.554 137.6967
1521.818002 93.556 138.0505
1532.845723 93.559 138.4223
1543.953355 93.562 138.8135
1555.141477 93.567 139.2242
1566.410674 93.575 139.6502
1577.761531 93.586 140.0806
1589.194642 93.602 140.5010
1600.710601 93.618 140.9020
1612.310010 93.635 141.2830
1623.993473 93.651 141.6494
1635.761599 93.664 142.0094
1647.615002 93.676 142.3698
1659.554299 93.685 142.7359
1671.580114 93.693 143.1116
1683.693072 93.700 143.4975
1695.893807 93.706 143.8914
1708.182952 93.712 144.2913
1720.561150 93.716 144.6971
1733.029045 93.720 145.1120
1745.587288 93.722 145.5410
1758.236533 93.724 145.9909
1770.977440 93.727 146.4673
1783.810673 93.732 146.9693
1796.736900 93.741 147.4871
1809.756796 93.753 148.0059
1822.871040 93.769 148.5142
1836.080315 93.785 149.0086
1849.385310 93.801 149.4912
1862.786718 93.816 149.9668
1876.285239 93.830 150.4414
1889.881575 93.843 150.9220
1903.576436 93.855 151.4152
1917.370535 93.868 151.9262
1931.264593 93.881 152.4572
1945.259332 93.898 153.0049
1959.355483 93.919 153.5576
1973.553781 93.945 154.0984
1987.854965 93.974 154.6142
2002.259781 94.004 155.1000
2016.768981 94.034 155.5578
2031.383320 94.063 155.9932
2046.103561 94.090 156.4134
2060.930471 94.116 156.8240
2075.864823 94.140 157.2278
2090.907395 94.162 157.6258
2106.058972 94.182 158.0203
2121.320344 94.199 158.4166
2136.692305 94.214 158.8228
2152.175658 94.227 159.2468
2167.771210 94.241 159.6903
2183.479774 94.256 160.1457
2199.302169 94.274 160.6001
2215.239219 94.294 161.0427
2231.291755 94.314 161.4680
2247.460615 94.334 161.8752
2263.746641 94.352 162.2679
2280.150683 94.368 162.6529
2296.673595 94.383 163.0390
2313.316238 94.398 163.4333
2330.079481 94.413 163.8374
2346.964198 94.430 164.2433
2363.971268 94.450 164.6379
2381.101578 94.471 165.0096
2398.356022 94.494 165.3525
2415.735498 94.515 165.6660
2433.240913 94.536 165.9530
2450.873180 94.554 166.2167
2468.633217 94.571 166.4594
2486.521951 94.585 166.6837
2504.540314 94.595 166.8953
2522.689246 94.602 167.1034
2540.969692 94.606 167.3173
2559.382606 94.608 167.5397
2577.928947 94.610 167.7646
2596.609683 94.612 167.9825
2615.425787 94.614 168.1854
2634.378241 94.614 168.3694
2653.468031 94.611 168.5355
2672.696154 94.606 168.6895
2692.063613 94.599 168.8393
2711.571415 94.591 168.9901
2731.220579 94.584 169.1383
2751.012130 94.578 169.2733
2770.947098 94.572 169.3831
2791.026522 94.567 169.4587
2811.251451 94.560 169.4960
2831.622938 94.552 169.4935
2852.142045 94.540 169.4512
2872.809842 94.524 169.3710
2893.627406 94.502 169.2590
2914.595823 94.474 169.1253
2935.716186 94.440 168.9792
2956.989596 94.400 168.8234
2978.417161 94.356 168.6552
3000.000000 94.305 168.4702
3021.739237 94.247 168.2672
3043.636005 94.180 168.0505
3065.691446 94.103 167.8320
3087.906710 94.017 167.6277
3110.282955 93.921 167.4516
3132.821347 93.817 167.3118
3155.523062 93.706 167.2125
3178.389283 93.590 167.1577
3201.421202 93.467 167.1533
3224.620020 93.341 167.2058
3247.986946 93.212 167.3213
3271.523198 93.082 167.5056
3295.230004 92.953 167.7655
3319.108599 92.829 168.1048
3343.160228 92.712 168.5176
3367.386145 92.605 168.9865
3391.787613 92.512 169.4878
3416.365904 92.430 169.9985
3441.122300 92.361 170.5023
3466.058091 92.302 170.9916
3491.174576 92.255 171.4626
3516.473066 92.219 171.9079
3541.954880 92.195 172.3148
3567.621345 92.182 172.6688
3593.473800 92.180 172.9557
3619.513592 92.186 173.1642
3645.742080 92.200 173.2868
3672.160630 92.220 173.3242
3698.770620 92.243 173.2844
3725.573436 92.269 173.1765
3752.570477 92.299 173.0048
3779.763150 92.332 172.7693
3807.152872 92.368 172.4706
3834.741071 92.405 172.1139
3862.529185 92.444 171.7100
3890.518664 92.485 171.2690
3918.710966 92.530 170.7952
3947.107561 92.580 170.2865
3975.709929 92.635 169.7375
4004.519563 92.695 169.1428
4033.537962 92.759 168.4995
4062.766641 92.826 167.8123
4092.207123 92.894 167.0943
4121.860942 92.964 166.3602
4151.729646 93.038 165.6212
4181.814790 93.115 164.8827
4212.117944 93.197 164.1487
4242.640687 93.284 163.4254
4273.384610 93.377 162.7201
4304.351317 93.479 162.0369
4335.542421 93.590 161.3737
4366.959549 93.713 160.7225
4398.604338 93.847 160.0712
4430.478438 93.992 159.4065
4462.583511 94.148 158.7194
4494.921231 94.313 158.0050
4527.493283 94.487 157.2563
4560.301365 94.668 156.4628
4593.347189 94.855 155.6132
4626.632476 95.042 154.7037
4660.158962 95.229 153.7382
4693.928395 95.412 152.7245
4727.942535 95.588 151.6710
4762.203156 95.756 150.5868
4796.712043 95.914 149.4838
4831.470996 96.058 148.3801
4866.481826 96.187 147.3024
4901.746360 96.302 146.2818
4937.266434 96.404 145.3456
4973.043902 96.496 144.5143
5009.080628 96.579 143.8048
5045.378492 96.657 143.2315
5081.939384 96.734 142.8033
5118.765212 96.814 142.5183
5155.857894 96.901 142.3622
5193.219366 96.998 142.3089
5230.851574 97.105 142.3278
5268.756481 97.223 142.3906
5306.936062 97.350 142.4726
5345.392309 97.484 142.5499
5384.127225 97.623 142.6034
5423.142830 97.762 142.6232
5462.441159 97.899 142.6094
5502.024259 98.032 142.5669
5541.894195 98.160 142.4999
5582.053045 98.282 142.4085
5622.502902 98.397 142.2914
5663.245876 98.503 142.1498
5704.284090 98.600 141.9877
5745.619684 98.686 141.8100
5787.254813 98.759 141.6249
5829.191647 98.818 141.4476
5871.432373 98.862 141.2999
5913.979192 98.892 141.2062
5956.834323 98.910 141.1879
6000.000000 98.916 141.2595
6043.478473 98.913 141.4316
6087.272010 98.903 141.7114
6131.382892 98.886 142.1014
6175.813420 98.866 142.6010
6220.565910 98.841 143.2106
6265.642695 98.814 143.9341
6311.046124 98.784 144.7767
6356.778566 98.754 145.7404
6402.842404 98.726 146.8213
6449.240040 98.702 148.0107
6495.973891 98.682 149.2953
6543.046396 98.670 150.6572
6590.460007 98.663 152.0774
6638.217197 98.662 153.5417
6686.320456 98.667 155.0415
6734.772290 98.676 156.5708
6783.575226 98.691 158.1220
6832.731809 98.710 159.6851
6882.244600 98.735 161.2470
6932.116181 98.765 162.7909
6982.349153 98.797 164.3002
7032.946133 98.831 165.7636
7083.909760 98.862 167.1779
7135.242690 98.891 168.5455
7186.947600 98.914 169.8713
7239.027185 98.931 171.1612
7291.484160 98.941 172.4188
7344.321260 98.943 173.6440
7397.541239 98.936 174.8361
7451.146872 98.918 175.9991
7505.140954 98.888 177.1439
7559.526299 98.845 178.2849
7614.305743 98.787 179.4391
7669.482141 98.716 -179.3770
7725.058371 98.632 -178.1514
7781.037328 98.534 -176.8750
7837.421932 98.423 -175.5363
7894.215122 98.298 -174.1188
7951.419859 98.159 -172.6031
8009.039125 98.009 -170.9700
8067.075924 97.848 -169.2033
8125.533282 97.679 -167.2952
8184.414245 97.504 -165.2462
8243.721885 97.326 -163.0591
8303.459292 97.146 -160.7346
8363.629581 96.965 -158.2709
8424.235888 96.786 -155.6650
8485.281374 96.610 -152.9184
8546.769221 96.441 -150.0435
8608.702634 96.281 -147.0622
8671.084842 96.131 -143.9967
8733.919097 95.991 -140.8637
8797.208675 95.860 -137.6726
8860.956876 95.739 -134.4284
8925.167022 95.629 -131.1415
8989.842461 95.530 -127.8313
9054.986566 95.442 -124.5219
9120.602731 95.364 -121.2345
9186.694378 95.293 -117.9830
9253.264952 95.228 -114.7730
9320.317925 95.167 -111.6092
9387.856790 95.109 -108.5007
9455.885071 95.051 -105.4587
9524.406312 94.992 -102.4913
9593.424086 94.928 -99.5962
9662.941992 94.855 -96.7583
9732.963653 94.771 -93.9569
9803.492719 94.677 -91.1738
9874.532869 94.570 -88.3949
9946.087805 94.451 -85.6076
10018.161257 94.319 -82.7950
10090.756983 94.173 -79.9369
10163.878768 94.016 -77.0179
10237.530423 93.848 -74.0347
10311.715789 93.671 -70.9946
10386.438732 93.484 -67.9065
10461.703149 93.286 -64.7707
10537.512962 93.075 -61.5787
10613.872125 92.852 -58.3183
10690.784618 92.615 -54.9779
10768.254450 92.363 -51.5432
10846.285661 92.096 -47.9898
10924.882318 91.815 -44.2829
11004.048518 91.521 -40.3865
11083.788390 91.217 -36.2736
11164.106090 90.909 -31.9291
11245.005805 90.599 -27.3436
11326.491752 90.293 -22.5087
11408.568180 89.994 -17.4229
11491.239368 89.709 -12.0992
11574.509626 89.443 -6.5656
11658.383294 89.197 -0.8543
11742.864745 88.976 5.0069
11827.958384 88.780 10.9911
11913.668646 88.612 17.0637
12000.000000 88.471 23.1817
12086.956947 88.358 29.3055
12174.544019 88.271 35.4060
12262.765784 88.206 41.4625
12351.626840 88.163 47.4567
12441.131819 88.138 53.3745
12531.285389 88.127 59.2153
12622.092249 88.129 64.9914
12713.557132 88.142 70.7184
12805.684808 88.166 76.4069
12898.480079 88.201 82.0655
12991.947783 88.249 87.7043
13086.092792 88.312 93.3295
13180.920015 88.392 98.9329
13276.434395 88.495 104.4893
13372.640911 88.621 109.9614
13469.544580 88.773 115.3012
13567.150452 88.953 120.4433
13665.463617 89.158 125.3056
13764.489200 89.383 129.8002
13864.232362 89.621 133.8463
13964.698305 89.861 137.3758
14065.892266 90.088 140.3395
14167.819519 90.285 142.7207
14270.485380 90.433 144.5477
14373.895200 90.514 145.8933
14478.054370 90.513 146.8708
14582.968320 90.416 147.6304
14688.642520 90.219 148.3520
14795.082478 89.920 149.2256
14902.293745 89.527 150.4281
15010.281908 89.052 152.1089
15119.052599 88.512 154.3826
15228.611486 87.927 157.3232
15338.964283 87.316 160.9629
15450.116741 86.700 165.2967
15562.074656 86.098 170.2876
15674.843864 85.528 175.8677
15788.430244 85.008 -178.0621
15902.839718 84.550 -171.6256
16018.078250 84.165 -164.9641
16134.151848 83.862 -158.2335
16251.066563 83.644 -151.6044
16368.828491 83.513 -145.2562
16487.443769 83.466 -139.3757
16606.918584 83.493 -134.1557
16727.259161 83.578 -129.7809
16848.471777 83.700 -126.4047
16970.562748 83.827 -124.1305
17093.538442 83.921 -122.9930
17217.405268 83.942 -122.9424
17342.169684 83.849 -123.8397
17467.838194 83.606 -125.4648
17594.417350 83.185 -127.5296
17721.913751 82.568 -129.7032
17850.334044 81.753 -131.6455
17979.684923 80.746 -133.0319
18109.973131 79.562 -133.5596
18241.205462 78.223 -132.9396
18373.388756 76.755 -130.8764
18506.529905 75.189 -127.0491
18640.635849 73.565 -121.1347
18775.713581 71.935 -112.9424
18911.770141 70.363 -102.7098
19048.812624 68.922 -91.3975
19186.848172 67.665 -80.4753
19325.883983 66.607 -71.1213
19465.927305 65.721 -63.7142
19606.985439 64.962 -58.0404
19749.065738 64.312 -53.7574
19892.175609 63.809 -50.7235
20036.322514 63.526 -49.0871
