* Measurement data measured by REW V5.31
* Source: EXCL: Microphone (USB Sound Device        ), MICROPHONE (Master Volume), L, volume: 0.390
* Format: 256k Log Swept Sine, 1 sweep at -10.0 dBFS with no timing reference
* Dated: Sep 26, 2024 12:05:10 AM
* REW Settings:
*  C-weighting compensation: Off
*  Target level: 75.0 dB
* Note: Kiwi Ears KE4 R
* Measurement: R  Kiwi Ears KE4
* Smoothing: 1/12 octave
* Frequency Step: 96 ppo
* Start Frequency: 0.36621094 Hz
*
* Freq(Hz)	SPL(dB)	Phase(degrees)
0.366211	88.453	-65.4651
0.368865	88.459	-65.5464
0.371538	88.467	-65.6681
0.374230	88.478	-65.8208
0.376942	88.489	-65.9962
0.379673	88.502	-66.1885
0.382424	88.515	-66.3936
0.385196	88.528	-66.6093
0.387987	88.542	-66.8341
0.390798	88.556	-67.0672
0.393630	88.570	-67.3083
0.396483	88.584	-67.5572
0.399356	88.598	-67.8138
0.402250	88.612	-68.0781
0.405165	88.626	-68.3502
0.408101	88.641	-68.6300
0.411058	88.655	-68.9177
0.414037	88.670	-69.2131
0.417037	88.685	-69.5164
0.420059	88.700	-69.8276
0.423103	88.715	-70.1467
0.426169	88.730	-70.4737
0.429257	88.745	-70.8087
0.432368	88.760	-71.1517
0.435501	88.776	-71.5026
0.438656	88.791	-71.8614
0.441835	88.807	-72.2283
0.445037	88.823	-72.6031
0.448262	88.839	-72.9858
0.451510	88.855	-73.3764
0.454782	88.871	-73.7749
0.458077	88.887	-74.1813
0.461397	88.903	-74.5955
0.464740	88.920	-75.0175
0.468108	88.936	-75.4472
0.471500	88.953	-75.8846
0.474917	88.970	-76.3296
0.478358	88.987	-76.7821
0.481825	89.004	-77.2420
0.485316	89.021	-77.7093
0.488833	89.038	-78.1839
0.492375	89.056	-78.6657
0.495943	89.073	-79.1545
0.499537	89.091	-79.6502
0.503157	89.109	-80.1528
0.506803	89.127	-80.6621
0.510475	89.145	-81.1780
0.514175	89.163	-81.7003
0.517900	89.181	-82.2289
0.521653	89.200	-82.7636
0.525434	89.219	-83.3043
0.529241	89.237	-83.8508
0.533076	89.256	-84.4029
0.536939	89.275	-84.9605
0.540830	89.294	-85.5234
0.544749	89.314	-86.0913
0.548696	89.333	-86.6642
0.552673	89.353	-87.2418
0.556677	89.372	-87.8239
0.560711	89.392	-88.4104
0.564774	89.412	-89.0009
0.568867	89.432	-89.5954
0.572989	89.453	-90.1937
0.577141	89.473	-90.7954
0.581324	89.494	-91.4005
0.585536	89.514	-92.0086
0.589779	89.535	-92.6197
0.594053	89.556	-93.2335
0.598358	89.578	-93.8498
0.602694	89.599	-94.4685
0.607061	89.620	-95.0892
0.611460	89.642	-95.7119
0.615891	89.664	-96.3364
0.620354	89.686	-96.9625
0.624849	89.708	-97.5900
0.629377	89.730	-98.2188
0.633938	89.753	-98.8487
0.638532	89.775	-99.4795
0.643159	89.798	-100.1112
0.647819	89.821	-100.7435
0.652514	89.844	-101.3764
0.657242	89.868	-102.0098
0.662005	89.891	-102.6436
0.666802	89.915	-103.2777
0.671634	89.938	-103.9120
0.676501	89.962	-104.5464
0.681403	89.986	-105.1810
0.686341	90.011	-105.8156
0.691314	90.035	-106.4504
0.696324	90.060	-107.0853
0.701370	90.085	-107.7205
0.706452	90.110	-108.3561
0.711571	90.135	-108.9924
0.716728	90.161	-109.6300
0.721921	90.186	-110.2695
0.727153	90.213	-110.9120
0.732422	90.239	-111.5589
0.737729	90.266	-112.2118
0.743075	90.293	-112.8722
0.748460	90.320	-113.5412
0.753883	90.348	-114.2196
0.759346	90.377	-114.9078
0.764849	90.405	-115.6060
0.770391	90.434	-116.3139
0.775974	90.463	-117.0314
0.781597	90.493	-117.7583
0.787261	90.523	-118.4942
0.792966	90.553	-119.2387
0.798712	90.583	-119.9914
0.804500	90.614	-120.7520
0.810329	90.645	-121.5201
0.816201	90.677	-122.2951
0.822116	90.708	-123.0767
0.828073	90.740	-123.8644
0.834074	90.773	-124.6578
0.840118	90.805	-125.4564
0.846206	90.838	-126.2597
0.852338	90.871	-127.0673
0.858514	90.905	-127.8787
0.864735	90.938	-128.6935
0.871001	90.972	-129.5112
0.877313	91.007	-130.3313
0.883670	91.041	-131.1534
0.890074	91.076	-131.9771
0.896524	91.111	-132.8018
0.903020	91.146	-133.6273
0.909564	91.181	-134.4530
0.916155	91.217	-135.2786
0.922794	91.252	-136.1038
0.929481	91.288	-136.9280
0.936216	91.324	-137.7511
0.943000	91.361	-138.5726
0.949834	91.397	-139.3922
0.956717	91.434	-140.2097
0.963649	91.471	-141.0249
0.970632	91.507	-141.8374
0.977666	91.544	-142.6470
0.984750	91.581	-143.4536
0.991886	91.619	-144.2569
0.999074	91.656	-145.0569
1.006314	91.693	-145.8534
1.013606	91.730	-146.6464
1.020951	91.768	-147.4357
1.028349	91.805	-148.2214
1.035801	91.842	-149.0036
1.043307	91.880	-149.7822
1.050867	91.917	-150.5574
1.058482	91.954	-151.3297
1.066152	91.991	-152.0993
1.073878	92.028	-152.8670
1.081660	92.065	-153.6339
1.089498	92.102	-154.4016
1.097393	92.139	-155.1722
1.105345	92.176	-155.9481
1.113355	92.213	-156.7317
1.121423	92.250	-157.5251
1.129549	92.287	-158.3296
1.137734	92.324	-159.1462
1.145979	92.362	-159.9754
1.154283	92.399	-160.8171
1.162647	92.436	-161.6715
1.171072	92.474	-162.5381
1.179558	92.512	-163.4168
1.188106	92.549	-164.3071
1.196715	92.587	-165.2085
1.205387	92.625	-166.1205
1.214122	92.663	-167.0426
1.222920	92.701	-167.9741
1.231782	92.739	-168.9144
1.240708	92.776	-169.8628
1.249699	92.814	-170.8185
1.258754	92.852	-171.7807
1.267876	92.890	-172.7486
1.277063	92.928	-173.7212
1.286318	92.965	-174.6976
1.295639	93.003	-175.6769
1.305027	93.040	-176.6581
1.314484	93.078	-177.6401
1.324009	93.115	-178.6218
1.333604	93.152	-179.6022
1.343268	93.189	179.4199
1.353002	93.225	178.4456
1.362806	93.262	177.4761
1.372681	93.298	176.5125
1.382628	93.334	175.5560
1.392647	93.369	174.6075
1.402739	93.404	173.6683
1.412904	93.439	172.7390
1.423142	93.474	171.8203
1.433455	93.508	170.9124
1.443843	93.542	170.0146
1.454305	93.575	169.1256
1.464844	93.608	168.2432
1.475459	93.641	167.3642
1.486150	93.673	166.4855
1.496920	93.705	165.6045
1.507767	93.736	164.7191
1.518693	93.768	163.8284
1.529698	93.798	162.9316
1.540783	93.829	162.0286
1.551948	93.859	161.1196
1.563194	93.889	160.2048
1.574521	93.918	159.2846
1.585931	93.947	158.3595
1.597423	93.975	157.4301
1.608999	94.003	156.4970
1.620658	94.030	155.5608
1.632402	94.057	154.6223
1.644232	94.084	153.6821
1.656146	94.110	152.7411
1.668147	94.135	151.8001
1.680235	94.160	150.8599
1.692411	94.184	149.9214
1.704675	94.207	148.9857
1.717028	94.230	148.0534
1.729470	94.252	147.1257
1.742003	94.274	146.2034
1.754626	94.294	145.2874
1.767341	94.314	144.3783
1.780147	94.333	143.4767
1.793047	94.352	142.5827
1.806040	94.369	141.6956
1.819128	94.386	140.8140
1.832310	94.402	139.9357
1.845587	94.417	139.0575
1.858961	94.430	138.1765
1.872432	94.443	137.2903
1.886001	94.455	136.3971
1.899667	94.466	135.4960
1.913433	94.476	134.5868
1.927299	94.485	133.6696
1.941265	94.493	132.7449
1.955332	94.500	131.8135
1.969501	94.506	130.8764
1.983773	94.511	129.9347
1.998148	94.514	128.9897
2.012627	94.517	128.0428
2.027212	94.519	127.0957
2.041902	94.520	126.1501
2.056698	94.519	125.2078
2.071602	94.518	124.2709
2.086614	94.515	123.3414
2.101734	94.512	122.4214
2.116964	94.507	121.5132
2.132304	94.502	120.6187
2.147756	94.495	119.7395
2.163320	94.487	118.8767
2.178996	94.478	118.0305
2.194786	94.467	117.1998
2.210690	94.455	116.3827
2.226710	94.442	115.5763
2.242845	94.426	114.7782
2.259098	94.409	113.9864
2.275468	94.391	113.1994
2.291957	94.370	112.4166
2.308566	94.349	111.6378
2.325295	94.325	110.8630
2.342145	94.300	110.0928
2.359117	94.274	109.3280
2.376212	94.247	108.5695
2.393431	94.219	107.8185
2.410775	94.190	107.0766
2.428244	94.160	106.3454
2.445840	94.129	105.6267
2.463564	94.098	104.9227
2.481416	94.067	104.2355
2.499397	94.035	103.5677
2.517509	94.003	102.9213
2.535752	93.971	102.2987
2.554127	93.938	101.7015
2.572635	93.905	101.1310
2.591277	93.870	100.5875
2.610055	93.834	100.0710
2.628968	93.797	99.5807
2.648019	93.759	99.1158
2.667208	93.719	98.6754
2.686535	93.679	98.2583
2.706003	93.638	97.8638
2.725612	93.597	97.4907
2.745363	93.556	97.1383
2.765257	93.516	96.8058
2.785295	93.478	96.4929
2.805478	93.441	96.1993
2.825808	93.406	95.9255
2.846285	93.374	95.6730
2.866910	93.346	95.4445
2.887685	93.320	95.2439
2.908611	93.298	95.0768
2.929688	93.280	94.9476
2.950917	93.265	94.8580
2.972301	93.253	94.8031
2.993839	93.244	94.7750
3.015534	93.239	94.7657
3.037386	93.236	94.7686
3.059396	93.236	94.7787
3.081565	93.240	94.7925
3.103896	93.247	94.8078
3.126388	93.258	94.8226
3.149043	93.273	94.8355
3.171862	93.292	94.8455
3.194847	93.316	94.8515
3.217998	93.344	94.8530
3.241317	93.377	94.8496
3.264805	93.416	94.8412
3.288463	93.460	94.8285
3.312293	93.511	94.8121
3.336295	93.568	94.7933
3.360471	93.631	94.7729
3.384822	93.700	94.7516
3.409350	93.776	94.7293
3.434056	93.856	94.7060
3.458940	93.941	94.6810
3.484005	94.030	94.6534
3.509252	94.123	94.6217
3.534681	94.218	94.5837
3.560295	94.315	94.5359
3.586094	94.413	94.4733
3.612081	94.512	94.3892
3.638255	94.613	94.2753
3.664620	94.714	94.1236
3.691175	94.817	93.9290
3.717923	94.922	93.6919
3.744864	95.028	93.4163
3.772001	95.136	93.1069
3.799335	95.246	92.7682
3.826866	95.356	92.4037
3.854597	95.467	92.0158
3.882529	95.577	91.6063
3.910664	95.686	91.1760
3.939002	95.793	90.7253
3.967546	95.898	90.2540
3.996296	96.001	89.7611
4.025255	96.100	89.2454
4.054423	96.197	88.7058
4.083804	96.291	88.1418
4.113396	96.383	87.5543
4.143204	96.472	86.9453
4.173227	96.559	86.3179
4.203468	96.643	85.6758
4.233928	96.724	85.0228
4.264609	96.802	84.3624
4.295512	96.877	83.6976
4.326639	96.948	83.0305
4.357992	97.016	82.3616
4.389572	97.079	81.6903
4.421380	97.139	81.0147
4.453419	97.195	80.3332
4.485691	97.247	79.6452
4.518196	97.294	78.9517
4.550936	97.338	78.2553
4.583914	97.379	77.5597
4.617131	97.416	76.8691
4.650589	97.450	76.1879
4.684289	97.480	75.5198
4.718233	97.507	74.8675
4.752424	97.532	74.2322
4.786862	97.552	73.6136
4.821549	97.570	73.0107
4.856488	97.584	72.4223
4.891680	97.595	71.8485
4.927127	97.603	71.2900
4.962831	97.609	70.7485
4.998794	97.613	70.2266
5.035017	97.616	69.7267
5.071503	97.618	69.2516
5.108253	97.619	68.8033
5.145270	97.620	68.3835
5.182555	97.620	67.9922
5.220110	97.620	67.6290
5.257937	97.619	67.2925
5.296038	97.619	66.9808
5.334415	97.619	66.6922
5.373071	97.621	66.4250
5.412006	97.624	66.1778
5.451224	97.630	65.9503
5.490725	97.639	65.7424
5.530514	97.652	65.5544
5.570590	97.667	65.3859
5.610957	97.685	65.2354
5.651616	97.706	65.0995
5.692570	97.731	64.9740
5.733821	97.758	64.8542
5.775370	97.789	64.7357
5.817221	97.824	64.6147
5.859375	97.862	64.4890
5.901834	97.904	64.3577
5.944602	97.949	64.2201
5.987679	97.998	64.0750
6.031068	98.050	63.9206
6.074771	98.104	63.7539
6.118792	98.159	63.5721
6.163131	98.216	63.3720
6.207792	98.274	63.1516
6.252776	98.332	62.9096
6.298086	98.391	62.6461
6.343725	98.450	62.3618
6.389694	98.509	62.0580
6.435996	98.567	61.7359
6.482634	98.624	61.3969
6.529610	98.679	61.0415
6.576926	98.731	60.6702
6.624585	98.782	60.2834
6.672590	98.829	59.8817
6.720942	98.874	59.4670
6.769645	98.915	59.0421
6.818700	98.954	58.6103
6.868111	98.989	58.1750
6.917881	99.021	57.7390
6.968010	99.050	57.3044
7.018504	99.075	56.8721
7.069362	99.097	56.4435
7.120590	99.115	56.0202
7.172189	99.131	55.6049
7.224161	99.144	55.2004
7.276511	99.154	54.8096
7.329239	99.162	54.4344
7.382350	99.169	54.0760
7.435845	99.174	53.7347
7.489729	99.177	53.4106
7.544002	99.180	53.1037
7.598669	99.182	52.8139
7.653732	99.185	52.5415
7.709194	99.188	52.2864
7.765058	99.192	52.0482
7.821327	99.197	51.8256
7.878004	99.204	51.6163
7.935091	99.212	51.4176
7.992592	99.221	51.2269
8.050510	99.233	51.0418
8.108847	99.247	50.8605
8.167607	99.263	50.6812
8.226793	99.281	50.5016
8.286408	99.301	50.3190
8.346454	99.323	50.1307
8.406936	99.346	49.9342
8.467856	99.370	49.7278
8.529218	99.395	49.5106
8.591024	99.421	49.2819
8.653278	99.447	49.0414
8.715983	99.473	48.7888
8.779143	99.498	48.5240
8.842760	99.522	48.2469
8.906839	99.545	47.9586
8.971381	99.567	47.6602
9.036392	99.587	47.3536
9.101873	99.605	47.0407
9.167829	99.622	46.7232
9.234263	99.636	46.4026
9.301178	99.648	46.0804
9.368578	99.659	45.7585
9.436467	99.667	45.4390
9.504847	99.674	45.1237
9.573723	99.679	44.8140
9.643099	99.683	44.5108
9.712976	99.684	44.2147
9.783361	99.684	43.9262
9.854255	99.681	43.6456
9.925663	99.676	43.3730
9.997588	99.669	43.1079
10.070035	99.660	42.8497
10.143007	99.649	42.5971
10.216507	99.638	42.3489
10.290540	99.625	42.1039
10.365109	99.613	41.8609
10.440219	99.601	41.6186
10.515873	99.588	41.3757
10.592076	99.576	41.1310
10.668830	99.565	40.8834
10.746141	99.553	40.6323
10.824012	99.542	40.3773
10.902447	99.531	40.1183
10.981451	99.520	39.8553
11.061027	99.509	39.5884
11.141180	99.498	39.3183
11.221913	99.486	39.0457
11.303232	99.473	38.7714
11.385140	99.460	38.4963
11.467641	99.447	38.2213
11.550741	99.433	37.9471
11.634442	99.419	37.6744
11.718750	99.406	37.4039
11.803669	99.392	37.1358
11.889203	99.379	36.8704
11.975357	99.367	36.6076
12.062136	99.355	36.3471
12.149543	99.343	36.0886
12.237583	99.333	35.8316
12.326262	99.323	35.5757
12.415583	99.313	35.3201
12.505552	99.304	35.0646
12.596172	99.295	34.8087
12.687449	99.286	34.5524
12.779387	99.277	34.2956
12.871992	99.268	34.0385
12.965268	99.259	33.7815
13.059220	99.249	33.5254
13.153852	99.240	33.2707
13.249170	99.230	33.0184
13.345179	99.220	32.7693
13.441884	99.210	32.5240
13.539289	99.201	32.2831
13.637401	99.192	32.0472
13.736223	99.182	31.8164
13.835761	99.174	31.5905
13.936021	99.165	31.3691
14.037007	99.158	31.1516
14.138725	99.150	30.9372
14.241180	99.143	30.7249
14.344377	99.137	30.5135
14.448323	99.131	30.3024
14.553021	99.125	30.0905
14.658478	99.120	29.8773
14.764700	99.114	29.6626
14.871691	99.108	29.4463
14.979457	99.102	29.2289
15.088005	99.095	29.0110
15.197339	99.088	28.7935
15.307465	99.080	28.5775
15.418389	99.072	28.3641
15.530117	99.063	28.1543
15.642655	99.053	27.9489
15.756008	99.042	27.7485
15.870182	99.032	27.5533
15.985184	99.021	27.3632
16.101019	99.010	27.1774
16.217694	99.000	26.9952
16.335214	98.989	26.8156
16.453586	98.980	26.6372
16.572815	98.970	26.4587
16.692909	98.961	26.2793
16.813872	98.953	26.0979
16.935713	98.944	25.9140
17.058436	98.936	25.7275
17.182048	98.927	25.5387
17.306556	98.918	25.3479
17.431967	98.909	25.1561
17.558286	98.899	24.9639
17.685521	98.888	24.7723
17.813677	98.876	24.5822
17.942762	98.864	24.3938
18.072783	98.852	24.2078
18.203746	98.840	24.0239
18.335658	98.827	23.8420
18.468526	98.815	23.6617
18.602356	98.803	23.4825
18.737156	98.791	23.3039
18.872934	98.779	23.1254
19.009695	98.768	22.9467
19.147447	98.758	22.7677
19.286197	98.747	22.5884
19.425953	98.737	22.4089
19.566721	98.727	22.2296
19.708510	98.717	22.0506
19.851326	98.707	21.8719
19.995177	98.698	21.6936
20.140070	98.688	21.5156
20.286013	98.679	21.3374
20.433014	98.671	21.1589
20.581080	98.662	20.9798
20.730219	98.654	20.7999
20.880439	98.647	20.6191
21.031747	98.639	20.4380
21.184152	98.632	20.2567
21.337661	98.624	20.0759
21.492282	98.617	19.8962
21.648024	98.611	19.7183
21.804895	98.604	19.5424
21.962902	98.598	19.3687
22.122054	98.591	19.1970
22.282360	98.585	19.0272
22.443827	98.579	18.8588
22.606464	98.573	18.6913
22.770280	98.567	18.5244
22.935283	98.561	18.3581
23.101481	98.555	18.1926
23.268884	98.548	18.0285
23.437500	98.541	17.8663
23.607338	98.532	17.7069
23.778406	98.524	17.5508
23.950714	98.515	17.3984
24.124271	98.505	17.2499
24.299086	98.495	17.1049
24.475167	98.485	16.9629
24.652524	98.474	16.8231
24.831166	98.464	16.6851
25.011103	98.453	16.5482
25.192344	98.442	16.4121
25.374898	98.431	16.2769
25.558775	98.419	16.1426
25.743984	98.407	16.0095
25.930536	98.394	15.8782
26.118439	98.381	15.7487
26.307704	98.367	15.6211
26.498341	98.354	15.4952
26.690359	98.340	15.3708
26.883768	98.326	15.2478
27.078579	98.312	15.1260
27.274801	98.298	15.0054
27.472446	98.284	14.8862
27.671522	98.269	14.7688
27.872042	98.255	14.6534
28.074014	98.241	14.5405
28.277450	98.226	14.4301
28.482360	98.213	14.3223
28.688755	98.199	14.2170
28.896645	98.187	14.1140
29.106042	98.175	14.0125
29.316957	98.164	13.9121
29.529400	98.153	13.8120
29.743382	98.144	13.7112
29.958915	98.136	13.6086
30.176009	98.129	13.5032
30.394677	98.122	13.3938
30.614929	98.117	13.2798
30.836778	98.111	13.1611
31.060234	98.105	13.0378
31.285309	98.100	12.9107
31.512015	98.093	12.7810
31.740364	98.086	12.6499
31.970368	98.079	12.5187
32.202039	98.071	12.3882
32.435388	98.062	12.2592
32.670428	98.053	12.1320
32.907171	98.043	12.0068
33.145630	98.032	11.8842
33.385817	98.021	11.7643
33.627745	98.009	11.6481
33.871425	97.997	11.5358
34.116871	97.985	11.4282
34.364096	97.972	11.3253
34.613113	97.960	11.2268
34.863934	97.947	11.1320
35.116572	97.935	11.0399
35.371041	97.923	10.9490
35.627354	97.912	10.8579
35.885525	97.901	10.7654
36.145566	97.891	10.6700
36.407492	97.880	10.5708
36.671316	97.870	10.4670
36.937051	97.859	10.3588
37.204712	97.848	10.2463
37.474313	97.837	10.1307
37.745867	97.824	10.0132
38.019389	97.812	9.8951
38.294893	97.798	9.7777
38.572394	97.784	9.6621
38.851905	97.770	9.5487
39.133442	97.755	9.4379
39.417019	97.741	9.3296
39.702651	97.726	9.2235
39.990353	97.711	9.1195
40.280140	97.696	9.0173
40.572026	97.680	8.9169
40.866028	97.665	8.8181
41.162160	97.649	8.7211
41.460438	97.633	8.6263
41.760877	97.617	8.5341
42.063494	97.601	8.4446
42.368303	97.584	8.3579
42.675322	97.567	8.2739
42.984565	97.550	8.1923
43.296048	97.533	8.1126
43.609789	97.516	8.0347
43.925804	97.499	7.9584
44.244108	97.481	7.8835
44.564719	97.463	7.8102
44.887654	97.446	7.7383
45.212928	97.428	7.6679
45.540560	97.410	7.5989
45.870565	97.393	7.5310
46.202962	97.375	7.4642
46.537768	97.357	7.3983
46.875000	97.340	7.3331
47.214676	97.322	7.2689
47.556813	97.305	7.2057
47.901429	97.287	7.1438
48.248542	97.269	7.0834
48.598171	97.252	7.0247
48.950334	97.234	6.9678
49.305048	97.217	6.9126
49.662333	97.199	6.8594
50.022206	97.182	6.8079
50.384688	97.164	6.7582
50.749796	97.146	6.7098
51.117550	97.129	6.6624
51.487969	97.112	6.6152
51.861072	97.094	6.5682
52.236879	97.076	6.5217
52.615409	97.058	6.4767
52.996681	97.039	6.4348
53.380717	97.020	6.3972
53.767536	97.002	6.3645
54.157158	96.983	6.3363
54.549603	96.965	6.3111
54.944892	96.948	6.2872
55.343045	96.931	6.2631
55.744084	96.915	6.2375
56.148028	96.899	6.2096
56.554900	96.883	6.1781
56.964720	96.867	6.1418
57.377510	96.851	6.1002
57.793291	96.834	6.0536
58.212085	96.816	6.0033
58.633914	96.797	5.9512
59.058799	96.777	5.8992
59.486764	96.756	5.8490
59.917829	96.735	5.8021
60.352019	96.712	5.7598
60.789354	96.689	5.7227
61.229859	96.666	5.6904
61.673556	96.644	5.6621
62.120468	96.621	5.6365
62.570618	96.598	5.6127
63.024031	96.575	5.5903
63.480729	96.552	5.5695
63.940736	96.529	5.5504
64.404077	96.506	5.5336
64.870776	96.482	5.5194
65.340856	96.458	5.5081
65.814343	96.433	5.4996
66.291261	96.408	5.4937
66.771635	96.384	5.4897
67.255489	96.358	5.4875
67.742850	96.333	5.4872
68.233743	96.308	5.4888
68.728193	96.282	5.4924
69.226226	96.256	5.4976
69.727867	96.231	5.5037
70.233144	96.205	5.5100
70.742083	96.180	5.5166
71.254709	96.154	5.5236
71.771050	96.129	5.5311
72.291132	96.103	5.5397
72.814984	96.077	5.5497
73.342631	96.050	5.5616
73.874102	96.024	5.5756
74.409424	95.997	5.5913
74.948626	95.970	5.6091
75.491734	95.944	5.6292
76.038779	95.917	5.6522
76.589787	95.890	5.6777
77.144788	95.863	5.7047
77.703811	95.837	5.7314
78.266885	95.811	5.7567
78.834039	95.785	5.7797
79.405303	95.759	5.7999
79.980706	95.733	5.8169
80.560280	95.705	5.8301
81.144053	95.678	5.8393
81.732056	95.649	5.8446
82.324320	95.618	5.8472
82.920876	95.586	5.8489
83.521755	95.553	5.8521
84.126988	95.518	5.8595
84.736607	95.481	5.8742
85.350643	95.443	5.8987
85.969129	95.404	5.9346
86.592097	95.365	5.9824
87.219579	95.326	6.0415
87.851608	95.287	6.1111
88.488217	95.248	6.1902
89.129439	95.209	6.2781
89.775308	95.171	6.3734
90.425856	95.134	6.4745
91.081119	95.097	6.5795
91.741131	95.060	6.6870
92.405925	95.023	6.7963
93.075536	94.986	6.9077
93.750000	94.949	7.0215
94.429351	94.912	7.1375
95.113625	94.876	7.2548
95.802858	94.839	7.3724
96.497085	94.802	7.4908
97.196342	94.764	7.6114
97.900667	94.726	7.7355
98.610096	94.688	7.8640
99.324665	94.649	7.9980
100.044413	94.609	8.1394
100.769376	94.570	8.2899
101.499592	94.530	8.4500
102.235100	94.490	8.6176
102.975938	94.451	8.7891
103.722144	94.413	8.9614
104.473757	94.374	9.1346
105.230817	94.336	9.3100
105.993363	94.298	9.4882
106.761435	94.260	9.6666
107.535072	94.224	9.8416
108.314315	94.187	10.0118
109.099206	94.150	10.1798
109.889783	94.112	10.3499
110.686090	94.073	10.5234
111.488167	94.033	10.6978
112.296056	93.992	10.8683
113.109800	93.948	11.0338
113.929440	93.901	11.1990
114.755020	93.851	11.3734
115.586582	93.799	11.5654
116.424170	93.746	11.7781
117.267827	93.694	12.0105
118.117598	93.643	12.2603
118.973527	93.593	12.5277
119.835658	93.546	12.8149
120.704037	93.500	13.1216
121.578708	93.457	13.4418
122.459718	93.415	13.7679
123.347111	93.374	14.0950
124.240935	93.333	14.4209
125.141236	93.292	14.7449
126.048061	93.251	15.0662
126.961458	93.210	15.3833
127.881473	93.170	15.6951
128.808154	93.130	16.0017
129.741551	93.089	16.3050
130.681712	93.048	16.6085
131.628686	93.007	16.9159
132.582521	92.965	17.2310
133.543269	92.923	17.5568
134.510979	92.881	17.8943
135.485701	92.839	18.2412
136.467486	92.798	18.5944
137.456386	92.756	18.9522
138.452451	92.715	19.3147
139.455735	92.674	19.6826
140.466288	92.632	20.0560
141.484165	92.591	20.4348
142.509418	92.550	20.8182
143.542100	92.508	21.2053
144.582265	92.466	21.5959
145.629968	92.423	21.9912
146.685262	92.380	22.3931
147.748204	92.335	22.8032
148.818849	92.289	23.2230
149.897251	92.242	23.6534
150.983469	92.195	24.0954
152.077557	92.148	24.5490
153.179574	92.102	25.0137
154.289576	92.057	25.4896
155.407622	92.014	25.9768
156.533770	91.973	26.4730
157.668078	91.935	26.9740
158.810606	91.898	27.4747
159.961413	91.861	27.9722
161.120559	91.825	28.4656
162.288105	91.789	28.9569
163.464112	91.753	29.4490
164.648640	91.716	29.9453
165.841752	91.679	30.4498
167.043510	91.643	30.9660
168.253976	91.606	31.4960
169.473213	91.570	32.0398
170.701286	91.536	32.5945
171.938258	91.502	33.1566
173.184194	91.469	33.7236
174.439158	91.439	34.2935
175.703216	91.409	34.8647
176.976434	91.381	35.4368
178.258878	91.353	36.0098
179.550615	91.326	36.5837
180.851713	91.299	37.1575
182.162239	91.272	37.7288
183.482262	91.246	38.2956
184.811850	91.220	38.8574
186.151073	91.194	39.4164
187.500000	91.170	39.9762
188.858702	91.145	40.5405
190.227250	91.121	41.1118
191.605715	91.097	41.6908
192.994169	91.073	42.2772
194.392685	91.049	42.8701
195.801334	91.026	43.4695
197.220191	91.004	44.0767
198.649330	90.984	44.6945
200.088825	90.965	45.3248
201.538751	90.949	45.9669
202.999184	90.934	46.6165
204.470200	90.921	47.2663
205.951875	90.910	47.9088
207.444287	90.901	48.5391
208.947514	90.891	49.1565
210.461634	90.881	49.7643
211.986726	90.869	50.3676
213.522869	90.856	50.9724
215.070144	90.842	51.5840
216.628631	90.827	52.2069
218.198411	90.812	52.8430
219.779567	90.798	53.4908
221.372180	90.786	54.1453
222.976334	90.776	54.8003
224.592112	90.767	55.4514
226.219600	90.758	56.0968
227.858880	90.750	56.7374
229.510039	90.743	57.3751
231.173164	90.736	58.0118
232.848340	90.729	58.6486
234.535655	90.723	59.2852
236.235197	90.716	59.9209
237.947054	90.710	60.5545
239.671317	90.704	61.1856
241.408074	90.698	61.8155
243.157416	90.690	62.4465
244.919435	90.683	63.0820
246.694223	90.674	63.7253
248.481871	90.666	64.3795
250.282473	90.658	65.0470
252.096123	90.651	65.7291
253.922915	90.647	66.4240
255.762945	90.645	67.1258
257.616309	90.647	67.8242
259.483103	90.651	68.5089
261.363424	90.656	69.1743
263.257372	90.660	69.8224
265.165043	90.663	70.4604
267.086538	90.665	71.0967
269.021957	90.666	71.7386
270.971401	90.666	72.3898
272.934972	90.667	73.0512
274.912771	90.669	73.7213
276.904902	90.672	74.3979
278.911469	90.676	75.0791
280.932577	90.682	75.7628
282.968330	90.690	76.4456
285.018835	90.701	77.1214
287.084199	90.713	77.7829
289.164530	90.726	78.4235
291.259935	90.738	79.0420
293.370525	90.748	79.6440
295.496408	90.755	80.2395
297.637697	90.760	80.8385
299.794503	90.763	81.4473
301.966937	90.764	82.0674
304.155114	90.765	82.6972
306.359147	90.766	83.3334
308.579152	90.768	83.9724
310.815244	90.769	84.6115
313.067539	90.769	85.2500
315.336156	90.769	85.8899
317.621211	90.768	86.5352
319.922826	90.766	87.1904
322.241118	90.764	87.8570
324.576210	90.762	88.5336
326.928223	90.762	89.2166
329.297280	90.762	89.9025
331.683504	90.764	90.5886
334.087019	90.766	91.2726
336.507952	90.768	91.9530
338.946427	90.771	92.6291
341.402572	90.772	93.3023
343.876516	90.773	93.9756
346.368387	90.774	94.6523
348.878315	90.774	95.3343
351.406431	90.773	96.0224
353.952867	90.773	96.7158
356.517756	90.773	97.4131
359.101230	90.773	98.1130
361.703426	90.774	98.8144
364.324478	90.775	99.5169
366.964523	90.775	100.2206
369.623699	90.776	100.9256
372.302145	90.777	101.6318
375.000000	90.778	102.3392
377.717405	90.779	103.0478
380.454501	90.780	103.7573
383.211431	90.781	104.4677
385.988339	90.782	105.1792
388.785369	90.784	105.8925
391.602668	90.785	106.6078
394.440383	90.786	107.3252
397.298660	90.788	108.0446
400.177650	90.790	108.7646
403.077502	90.793	109.4833
405.998368	90.795	110.1989
408.940400	90.796	110.9107
411.903750	90.797	111.6204
414.888575	90.797	112.3315
417.895028	90.795	113.0479
420.923268	90.794	113.7721
423.973452	90.792	114.5048
427.045738	90.791	115.2442
430.140287	90.792	115.9863
433.257261	90.793	116.7257
436.396822	90.795	117.4590
439.559133	90.797	118.1855
442.744360	90.800	118.9048
445.952668	90.803	119.6145
449.184225	90.806	120.3097
452.439199	90.808	120.9845
455.717760	90.807	121.6366
459.020079	90.802	122.2709
462.346327	90.791	122.9001
465.696680	90.775	123.5391
469.071310	90.754	124.1982
472.470394	90.730	124.8815
475.894109	90.703	125.5872
479.342634	90.673	126.3108
482.816148	90.640	127.0505
486.314833	90.602	127.8151
489.838871	90.560	128.6266
493.388445	90.515	129.5111
496.963741	90.472	130.4816
500.564945	90.436	131.5269
504.192245	90.410	132.6150
507.845830	90.395	133.7074
511.525890	90.389	134.7742
515.232618	90.388	135.8015
518.966206	90.390	136.7892
522.726849	90.391	137.7456
526.514743	90.392	138.6817
530.330086	90.391	139.6063
534.173076	90.390	140.5231
538.043915	90.387	141.4330
541.942803	90.383	142.3380
545.869944	90.377	143.2427
549.825542	90.371	144.1508
553.809805	90.363	145.0623
557.822939	90.355	145.9752
561.865154	90.347	146.8878
565.936660	90.337	147.8014
570.037671	90.325	148.7193
574.168399	90.312	149.6455
578.329060	90.299	150.5822
582.519870	90.284	151.5293
586.741049	90.269	152.4867
590.992817	90.253	153.4567
595.275394	90.237	154.4421
599.589005	90.221	155.4419
603.933874	90.205	156.4520
608.310228	90.190	157.4685
612.718295	90.174	158.4898
617.158304	90.158	159.5181
621.630488	90.141	160.5592
626.135079	90.124	161.6199
630.672311	90.107	162.7023
635.242423	90.091	163.8022
639.845651	90.078	164.9135
644.482237	90.065	166.0345
649.152421	90.055	167.1662
653.856447	90.047	168.3068
658.594560	90.041	169.4485
663.367008	90.038	170.5804
668.174039	90.036	171.6943
673.015903	90.033	172.7910
677.892854	90.027	173.8791
682.805145	90.019	174.9683
687.753032	90.009	176.0659
692.736774	89.996	177.1774
697.756631	89.982	178.3069
702.812863	89.967	179.4560
707.905735	89.953	-179.3779
713.035511	89.940	-178.1992
718.202461	89.927	-177.0111
723.406852	89.915	-175.8143
728.648956	89.902	-174.6077
733.929047	89.890	-173.3903
739.247399	89.878	-172.1611
744.604290	89.866	-170.9192
750.000000	89.854	-169.6644
755.434809	89.843	-168.3968
760.909001	89.832	-167.1169
766.422861	89.822	-165.8253
771.976677	89.813	-164.5229
777.570739	89.805	-163.2104
783.205337	89.798	-161.8883
788.880766	89.791	-160.5549
794.597321	89.786	-159.2070
800.355301	89.782	-157.8422
806.155005	89.780	-156.4621
811.996736	89.782	-155.0732
817.880799	89.787	-153.6846
823.807501	89.796	-152.3064
829.777150	89.806	-150.9470
835.790057	89.816	-149.6084
841.846536	89.825	-148.2830
847.946903	89.832	-146.9594
854.091476	89.837	-145.6292
860.280575	89.840	-144.2881
866.514523	89.842	-142.9330
872.793644	89.844	-141.5604
879.118267	89.846	-140.1709
885.488720	89.849	-138.7692
891.905336	89.852	-137.3594
898.368450	89.857	-135.9417
904.878398	89.862	-134.5136
911.435520	89.869	-133.0737
918.040157	89.877	-131.6242
924.692655	89.887	-130.1684
931.393359	89.899	-128.7101
938.142619	89.912	-127.2535
944.940787	89.927	-125.8002
951.788218	89.943	-124.3487
958.685268	89.959	-122.8960
965.632296	89.976	-121.4392
972.629666	89.993	-119.9760
979.677741	90.011	-118.5063
986.776890	90.030	-117.0319
993.927482	90.050	-115.5522
1001.129891	90.071	-114.0633
1008.384491	90.092	-112.5612
1015.691660	90.116	-111.0463
1023.051781	90.143	-109.5238
1030.465236	90.174	-108.0020
1037.932411	90.209	-106.4934
1045.453698	90.247	-105.0107
1053.029486	90.285	-103.5589
1060.660172	90.323	-102.1334
1068.346153	90.358	-100.7242
1076.087829	90.391	-99.3210
1083.885605	90.422	-97.9170
1091.739887	90.452	-96.5101
1099.651084	90.481	-95.1004
1107.619609	90.508	-93.6876
1115.645878	90.534	-92.2706
1123.730308	90.560	-90.8484
1131.873321	90.584	-89.4196
1140.075341	90.608	-87.9834
1148.336797	90.631	-86.5388
1156.658119	90.654	-85.0851
1165.039741	90.677	-83.6203
1173.482099	90.701	-82.1426
1181.985634	90.727	-80.6521
1190.550789	90.755	-79.1554
1199.178011	90.785	-77.6652
1207.867749	90.818	-76.1942
1216.620457	90.851	-74.7483
1225.436590	90.882	-73.3227
1234.316609	90.910	-71.9075
1243.260976	90.935	-70.4922
1252.270157	90.956	-69.0684
1261.344623	90.975	-67.6315
1270.484846	90.992	-66.1803
1279.691303	91.007	-64.7133
1288.964474	91.020	-63.2292
1298.304842	91.033	-61.7285
1307.712894	91.046	-60.2140
1317.189120	91.058	-58.6897
1326.734016	91.071	-57.1571
1336.348077	91.083	-55.6150
1346.031806	91.095	-54.0598
1355.785708	91.108	-52.4869
1365.610290	91.121	-50.8921
1375.506065	91.135	-49.2697
1385.473549	91.151	-47.6139
1395.513261	91.170	-45.9235
1405.625726	91.192	-44.2047
1415.811469	91.220	-42.4713
1426.071023	91.251	-40.7402
1436.404921	91.284	-39.0217
1446.813703	91.318	-37.3159
1457.297912	91.352	-35.6161
1467.858093	91.383	-33.9148
1478.494798	91.413	-32.2063
1489.208581	91.441	-30.4868
1500.000000	91.466	-28.7525
1510.869618	91.487	-27.0002
1521.818002	91.505	-25.2268
1532.845723	91.519	-23.4296
1543.953355	91.530	-21.6061
1555.141477	91.540	-19.7556
1566.410674	91.551	-17.8825
1577.761531	91.565	-15.9996
1589.194642	91.581	-14.1231
1600.710601	91.599	-12.2633
1612.310010	91.618	-10.4207
1623.993473	91.635	-8.5891
1635.761599	91.652	-6.7597
1647.615002	91.667	-4.9252
1659.554299	91.681	-3.0800
1671.580114	91.695	-1.2201
1683.693072	91.709	0.6551
1695.893807	91.724	2.5433
1708.182952	91.739	4.4422
1720.561150	91.753	6.3522
1733.029045	91.766	8.2772
1745.587288	91.778	10.2237
1758.236533	91.789	12.2001
1770.977440	91.800	14.2132
1783.810673	91.815	16.2624
1796.736900	91.834	18.3366
1809.756796	91.858	20.4189
1822.871040	91.887	22.4962
1836.080315	91.919	24.5645
1849.385310	91.954	26.6258
1862.786718	91.992	28.6842
1876.285239	92.031	30.7450
1889.881575	92.074	32.8136
1903.576436	92.122	34.8954
1917.370535	92.175	36.9951
1931.264593	92.236	39.1149
1945.259332	92.306	41.2507
1959.355483	92.386	43.3892
1973.553781	92.474	45.5112
1987.854965	92.568	47.6018
2002.259781	92.667	49.6554
2016.768981	92.768	51.6743
2031.383320	92.869	53.6643
2046.103561	92.970	55.6329
2060.930471	93.070	57.5859
2075.864823	93.170	59.5266
2090.907395	93.268	61.4570
2106.058972	93.365	63.3812
2121.320344	93.459	65.3064
2136.692305	93.552	67.2430
2152.175658	93.644	69.2007
2167.771210	93.738	71.1812
2183.479774	93.834	73.1750
2199.302169	93.934	75.1669
2215.239219	94.038	77.1444
2231.291755	94.143	79.1013
2247.460615	94.250	81.0370
2263.746641	94.358	82.9548
2280.150683	94.467	84.8614
2296.673595	94.576	86.7643
2313.316238	94.688	88.6690
2330.079481	94.803	90.5744
2346.964198	94.923	92.4692
2363.971268	95.047	94.3376
2381.101578	95.175	96.1666
2398.356022	95.305	97.9503
2415.735498	95.436	99.6883
2433.240913	95.567	101.3831
2450.873180	95.697	103.0373
2468.633217	95.827	104.6518
2486.521951	95.954	106.2283
2504.540314	96.079	107.7725
2522.689246	96.201	109.2936
2540.969692	96.322	110.8004
2559.382606	96.442	112.2934
2577.928947	96.563	113.7638
2596.609683	96.684	115.1994
2615.425787	96.805	116.5912
2634.378241	96.924	117.9350
2653.468031	97.039	119.2331
2672.696154	97.151	120.4928
2692.063613	97.260	121.7226
2711.571415	97.365	122.9277
2731.220579	97.468	124.1039
2751.012130	97.570	125.2413
2770.947098	97.668	126.3297
2791.026522	97.762	127.3641
2811.251451	97.851	128.3444
2831.622938	97.933	129.2740
2852.142045	98.007	130.1576
2872.809842	98.072	131.0018
2893.627406	98.128	131.8175
2914.595823	98.173	132.6193
2935.716186	98.208	133.4205
2956.989596	98.236	134.2265
2978.417161	98.256	135.0359
3000.000000	98.269	135.8450
3021.739237	98.275	136.6520
3043.636005	98.272	137.4603
3065.691446	98.260	138.2789
3087.906710	98.240	139.1201
3110.282955	98.213	139.9919
3132.821347	98.179	140.8946
3155.523062	98.141	141.8242
3178.389283	98.097	142.7760
3201.421202	98.047	143.7480
3224.620020	97.992	144.7398
3247.986946	97.929	145.7531
3271.523198	97.860	146.7932
3295.230004	97.783	147.8709
3319.108599	97.699	148.9990
3343.160228	97.610	150.1850
3367.386145	97.518	151.4280
3391.787613	97.424	152.7226
3416.365904	97.328	154.0630
3441.122300	97.230	155.4483
3466.058091	97.131	156.8835
3491.174576	97.032	158.3730
3516.473066	96.933	159.9146
3541.954880	96.837	161.4973
3567.621345	96.744	163.1062
3593.473800	96.652	164.7256
3619.513592	96.562	166.3416
3645.742080	96.470	167.9449
3672.160630	96.375	169.5357
3698.770620	96.274	171.1248
3725.573436	96.166	172.7271
3752.570477	96.050	174.3554
3779.763150	95.927	176.0210
3807.152872	95.795	177.7369
3834.741071	95.655	179.5228
3862.529185	95.507	-178.5965
3890.518664	95.355	-176.6004
3918.710966	95.204	-174.4825
3947.107561	95.058	-172.2537
3975.709929	94.922	-169.9401
4004.519563	94.798	-167.5786
4033.537962	94.686	-165.2093
4062.766641	94.584	-162.8647
4092.207123	94.488	-160.5638
4121.860942	94.396	-158.3155
4151.729646	94.304	-156.1226
4181.814790	94.208	-153.9804
4212.117944	94.102	-151.8718
4242.640687	93.985	-149.7626
4273.384610	93.854	-147.6078
4304.351317	93.710	-145.3620
4335.542421	93.556	-142.9867
4366.959549	93.396	-140.4536
4398.604338	93.236	-137.7463
4430.478438	93.081	-134.8582
4462.583511	92.936	-131.7874
4494.921231	92.808	-128.5380
4527.493283	92.702	-125.1279
4560.301365	92.624	-121.5914
4593.347189	92.577	-117.9727
4626.632476	92.564	-114.3152
4660.158962	92.586	-110.6577
4693.928395	92.642	-107.0395
4727.942535	92.733	-103.5040
4762.203156	92.858	-100.0986
4796.712043	93.012	-96.8727
4831.470996	93.191	-93.8683
4866.481826	93.390	-91.1139
4901.746360	93.601	-88.6247
4937.266434	93.818	-86.4089
4973.043902	94.034	-84.4672
5009.080628	94.243	-82.7878
5045.378492	94.439	-81.3452
5081.939384	94.617	-80.1066
5118.765212	94.777	-79.0400
5155.857894	94.915	-78.1184
5193.219366	95.032	-77.3205
5230.851574	95.126	-76.6261
5268.756481	95.195	-76.0117
5306.936062	95.238	-75.4527
5345.392309	95.257	-74.9260
5384.127225	95.249	-74.4086
5423.142830	95.215	-73.8725
5462.441159	95.156	-73.2851
5502.024259	95.074	-72.6144
5541.894195	94.973	-71.8357
5582.053045	94.857	-70.9362
5622.502902	94.733	-69.9147
5663.245876	94.603	-68.7780
5704.284090	94.472	-67.5410
5745.619684	94.342	-66.2272
5787.254813	94.214	-64.8634
5829.191647	94.088	-63.4693
5871.432373	93.961	-62.0542
5913.979192	93.833	-60.6178
5956.834323	93.702	-59.1556
6000.000000	93.567	-57.6621
6043.478473	93.429	-56.1293
6087.272010	93.287	-54.5466
6131.382892	93.140	-52.9039
6175.813420	92.991	-51.1911
6220.565910	92.840	-49.3941
6265.642695	92.687	-47.4947
6311.046124	92.536	-45.4741
6356.778566	92.391	-43.3206
6402.842404	92.256	-41.0334
6449.240040	92.136	-38.6223
6495.973891	92.035	-36.1069
6543.046396	91.957	-33.5159
6590.460007	91.903	-30.8812
6638.217197	91.874	-28.2314
6686.320456	91.870	-25.5898
6734.772290	91.891	-22.9771
6783.575226	91.937	-20.4147
6832.731809	92.006	-17.9235
6882.244600	92.098	-15.5245
6932.116181	92.210	-13.2416
6982.349153	92.340	-11.1011
7032.946133	92.486	-9.1265
7083.909760	92.645	-7.3354
7135.242690	92.813	-5.7413
7186.947600	92.987	-4.3537
7239.027185	93.162	-3.1782
7291.484160	93.333	-2.2157
7344.321260	93.495	-1.4595
7397.541239	93.643	-0.8892
7451.146872	93.771	-0.4651
7505.140954	93.878	-0.1313
7559.526299	93.966	0.1710
7614.305743	94.043	0.4848
7669.482141	94.119	0.8139
7725.058371	94.201	1.1071
7781.037328	94.290	1.2714
7837.421932	94.379	1.2163
7894.215122	94.448	0.9043
7951.419859	94.481	0.3723
8009.039125	94.466	-0.2793
8067.075924	94.396	-0.9211
8125.533282	94.276	-1.4297
8184.414245	94.114	-1.7083
8243.721885	93.924	-1.6903
8303.459292	93.718	-1.3384
8363.629581	93.511	-0.6437
8424.235888	93.316	0.3752
8485.281374	93.148	1.6687
8546.769221	93.016	3.1566
8608.702634	92.925	4.7385
8671.084842	92.876	6.3137
8733.919097	92.863	7.7972
8797.208675	92.879	9.1318
8860.956876	92.913	10.2896
8925.167022	92.958	11.2645
8989.842461	93.005	12.0660
9054.986566	93.047	12.7161
9120.602731	93.082	13.2463
9186.694378	93.105	13.6937
9253.264952	93.116	14.0952
9320.317925	93.117	14.4789
9387.856790	93.111	14.8585
9455.885071	93.099	15.2371
9524.406312	93.082	15.6123
9593.424086	93.060	15.9846
9662.941992	93.035	16.3595
9732.963653	93.005	16.7432
9803.492719	92.972	17.1384
9874.532869	92.936	17.5452
9946.087805	92.896	17.9648
10018.161257	92.851	18.4061
10090.756983	92.801	18.8846
10163.878768	92.746	19.4146
10237.530423	92.690	20.0029
10311.715789	92.633	20.6493
10386.438732	92.578	21.3514
10461.703149	92.526	22.1104
10537.512962	92.478	22.9285
10613.872125	92.436	23.8021
10690.784618	92.403	24.7200
10768.254450	92.379	25.6673
10846.285661	92.365	26.6338
10924.882318	92.361	27.6154
11004.048518	92.369	28.6082
11083.788390	92.390	29.6018
11164.106090	92.426	30.5802
11245.005805	92.479	31.5273
11326.491752	92.549	32.4294
11408.568180	92.639	33.2703
11491.239368	92.749	34.0240
11574.509626	92.883	34.6538
11658.383294	93.039	35.1172
11742.864745	93.218	35.3693
11827.958384	93.416	35.3604
11913.668646	93.630	35.0343
12000.000000	93.853	34.3338
12086.956947	94.074	33.2128
12174.544019	94.281	31.6448
12262.765784	94.459	29.6262
12351.626840	94.594	27.1763
12441.131819	94.671	24.3425
12531.285389	94.675	21.2045
12622.092249	94.597	17.8704
12713.557132	94.429	14.4658
12805.684808	94.171	11.1205
12898.480079	93.825	7.9595
12991.947783	93.398	5.0963
13086.092792	92.901	2.6246
13180.920015	92.347	0.6086
13276.434395	91.753	-0.9177
13372.640911	91.132	-1.9455
13469.544580	90.499	-2.4846
13567.150452	89.868	-2.5630
13665.463617	89.249	-2.2260
13764.489200	88.653	-1.5294
13864.232362	88.087	-0.5333
13964.698305	87.555	0.7013
14065.892266	87.062	2.1141
14167.819519	86.607	3.6525
14270.485380	86.192	5.2772
14373.895200	85.815	6.9597
14478.054370	85.477	8.6743
14582.968320	85.177	10.3978
14688.642520	84.914	12.1124
14795.082478	84.690	13.8014
14902.293745	84.505	15.4447
15010.281908	84.360	17.0219
15119.052599	84.257	18.5137
15228.611486	84.197	19.9003
15338.964283	84.183	21.1584
15450.116741	84.216	22.2635
15562.074656	84.295	23.1912
15674.843864	84.419	23.9157
15788.430244	84.585	24.4097
15902.839718	84.792	24.6469
16018.078250	85.035	24.6023
16134.151848	85.312	24.2494
16251.066563	85.622	23.5598
16368.828491	85.962	22.5053
16487.443769	86.329	21.0566
16606.918584	86.721	19.1797
16727.259161	87.133	16.8373
16848.471777	87.560	13.9913
16970.562748	87.994	10.6046
17093.538442	88.423	6.6488
17217.405268	88.835	2.1166
17342.169684	89.215	-2.9748
17467.838194	89.554	-8.5858
17594.417350	89.842	-14.6642
17721.913751	90.077	-21.1597
17850.334044	90.259	-28.0396
17979.684923	90.386	-35.2939
18109.973131	90.457	-42.9282
18241.205462	90.463	-50.9529
18373.388756	90.389	-59.3644
18506.529905	90.215	-68.1252
18640.635849	89.921	-77.1514
18775.713581	89.486	-86.3102
18911.770141	88.897	-95.4274
19048.812624	88.149	-104.3098
19186.848172	87.247	-112.7709
19325.883983	86.209	-120.6497
19465.927305	85.069	-127.8103
19606.985439	83.885	-134.1172
19749.065738	82.753	-139.3778
19892.175609	81.825	-143.2782
20036.322514	81.288	-145.3975
