* Measurement data measured by REW V5.31
* Source: EXCL: Microphone (USB Sound Device        ), MICROPHONE (Master Volume), L, volume: 0.390
* Format: 256k Log Swept Sine, 1 sweep at -10.0 dBFS with no timing reference
* Dated: Sep 23, 2024 1:26:44 PM
* REW Settings:
*  C-weighting compensation: Off
*  Target level: 75.0 dB
* Note: Soratune YI01 R
* Measurement: R Sep 23
* Smoothing: 1/12 octave
* Frequency Step: 96 ppo
* Start Frequency: 0.36621094 Hz
*
* Freq(Hz)	SPL(dB)	Phase(degrees)
0.366211	78.531	-176.0824
0.368865	78.532	-176.0904
0.371538	78.533	-176.1022
0.374230	78.535	-176.1169
0.376942	78.537	-176.1337
0.379673	78.538	-176.1518
0.382424	78.541	-176.1709
0.385196	78.543	-176.1907
0.387987	78.545	-176.2111
0.390798	78.547	-176.2319
0.393630	78.549	-176.2533
0.396483	78.551	-176.2750
0.399356	78.554	-176.2972
0.402250	78.556	-176.3198
0.405165	78.558	-176.3428
0.408101	78.560	-176.3663
0.411058	78.563	-176.3902
0.414037	78.565	-176.4146
0.417037	78.567	-176.4394
0.420059	78.570	-176.4647
0.423103	78.572	-176.4904
0.426169	78.574	-176.5167
0.429257	78.577	-176.5434
0.432368	78.579	-176.5707
0.435501	78.582	-176.5984
0.438656	78.584	-176.6267
0.441835	78.586	-176.6555
0.445037	78.589	-176.6848
0.448262	78.591	-176.7147
0.451510	78.594	-176.7451
0.454782	78.596	-176.7761
0.458077	78.599	-176.8076
0.461397	78.602	-176.8398
0.464740	78.604	-176.8725
0.468108	78.607	-176.9059
0.471500	78.609	-176.9399
0.474917	78.612	-176.9745
0.478358	78.615	-177.0097
0.481825	78.617	-177.0456
0.485316	78.620	-177.0821
0.488833	78.623	-177.1194
0.492375	78.626	-177.1573
0.495943	78.628	-177.1959
0.499537	78.631	-177.2352
0.503157	78.634	-177.2753
0.506803	78.637	-177.3161
0.510475	78.640	-177.3577
0.514175	78.642	-177.4000
0.517900	78.645	-177.4431
0.521653	78.648	-177.4870
0.525434	78.651	-177.5318
0.529241	78.654	-177.5773
0.533076	78.657	-177.6238
0.536939	78.660	-177.6711
0.540830	78.663	-177.7193
0.544749	78.666	-177.7684
0.548696	78.669	-177.8184
0.552673	78.672	-177.8693
0.556677	78.675	-177.9213
0.560711	78.678	-177.9742
0.564774	78.682	-178.0281
0.568867	78.685	-178.0831
0.572989	78.688	-178.1391
0.577141	78.691	-178.1962
0.581324	78.694	-178.2544
0.585536	78.698	-178.3137
0.589779	78.701	-178.3742
0.594053	78.704	-178.4358
0.598358	78.708	-178.4987
0.602694	78.711	-178.5628
0.607061	78.714	-178.6282
0.611460	78.718	-178.6949
0.615891	78.721	-178.7629
0.620354	78.725	-178.8323
0.624849	78.728	-178.9031
0.629377	78.732	-178.9753
0.633938	78.735	-179.0490
0.638532	78.739	-179.1242
0.643159	78.742	-179.2010
0.647819	78.746	-179.2794
0.652514	78.750	-179.3594
0.657242	78.753	-179.4412
0.662005	78.757	-179.5246
0.666802	78.761	-179.6099
0.671634	78.764	-179.6970
0.676501	78.768	-179.7860
0.681403	78.772	-179.8770
0.686341	78.776	-179.9699
0.691314	78.779	179.9350
0.696324	78.783	179.8378
0.701370	78.787	179.7383
0.706452	78.790	179.6365
0.711571	78.794	179.5323
0.716728	78.796	179.4255
0.721921	78.798	179.3159
0.727153	78.799	179.2034
0.732422	78.798	179.0876
0.737729	78.796	178.9683
0.743075	78.792	178.8452
0.748460	78.787	178.7180
0.753883	78.781	178.5865
0.759346	78.774	178.4507
0.764849	78.767	178.3104
0.770391	78.759	178.1656
0.775974	78.752	178.0164
0.781597	78.744	177.8627
0.787261	78.735	177.7045
0.792966	78.727	177.5418
0.798712	78.718	177.3746
0.804500	78.710	177.2029
0.810329	78.700	177.0268
0.816201	78.691	176.8462
0.822116	78.681	176.6611
0.828073	78.671	176.4717
0.834074	78.660	176.2778
0.840118	78.649	176.0796
0.846206	78.638	175.8770
0.852338	78.626	175.6702
0.858514	78.614	175.4590
0.864735	78.601	175.2435
0.871001	78.587	175.0238
0.877313	78.573	174.7999
0.883670	78.558	174.5718
0.890074	78.542	174.3397
0.896524	78.526	174.1033
0.903020	78.509	173.8630
0.909564	78.491	173.6187
0.916155	78.472	173.3704
0.922794	78.452	173.1181
0.929481	78.431	172.8620
0.936216	78.410	172.6021
0.943000	78.387	172.3384
0.949834	78.363	172.0709
0.956717	78.338	171.7998
0.963649	78.311	171.5251
0.970632	78.283	171.2468
0.977666	78.254	170.9650
0.984750	78.224	170.6797
0.991886	78.192	170.3910
0.999074	78.158	170.0989
1.006314	78.123	169.8035
1.013606	78.086	169.5049
1.020951	78.047	169.2031
1.028349	78.006	168.8981
1.035801	77.964	168.5900
1.043307	77.919	168.2788
1.050867	77.872	167.9645
1.058482	77.824	167.6469
1.066152	77.772	167.3259
1.073878	77.719	167.0011
1.081660	77.663	166.6719
1.089498	77.604	166.3372
1.097393	77.542	165.9957
1.105345	77.477	165.6456
1.113355	77.409	165.2850
1.121423	77.337	164.9123
1.129549	77.262	164.5261
1.137734	77.184	164.1254
1.145979	77.102	163.7096
1.154283	77.017	163.2780
1.162647	76.928	162.8301
1.171072	76.836	162.3657
1.179558	76.740	161.8843
1.188106	76.642	161.3857
1.196715	76.540	160.8696
1.205387	76.435	160.3355
1.214122	76.328	159.7832
1.222920	76.218	159.2123
1.231782	76.105	158.6226
1.240708	75.989	158.0137
1.249699	75.871	157.3851
1.258754	75.751	156.7367
1.267876	75.629	156.0679
1.277063	75.505	155.3785
1.286318	75.379	154.6682
1.295639	75.251	153.9364
1.305027	75.122	153.1829
1.314484	74.992	152.4072
1.324009	74.860	151.6089
1.333604	74.728	150.7878
1.343268	74.595	149.9432
1.353002	74.461	149.0749
1.362806	74.328	148.1823
1.372681	74.194	147.2649
1.382628	74.061	146.3221
1.392647	73.928	145.3535
1.402739	73.795	144.3579
1.412904	73.664	143.3344
1.423142	73.533	142.2812
1.433455	73.404	141.1959
1.443843	73.274	140.0747
1.454305	73.145	138.9123
1.464844	73.014	137.7009
1.475459	72.880	136.4310
1.486150	72.742	135.0916
1.496920	72.599	133.6713
1.507767	72.451	132.1589
1.518693	72.296	130.5434
1.529698	72.136	128.8135
1.540783	71.970	126.9576
1.551948	71.801	124.9638
1.563194	71.627	122.8190
1.574521	71.451	120.5099
1.585931	71.272	118.0224
1.597423	71.093	115.3421
1.608999	70.914	112.4547
1.620658	70.737	109.3469
1.632402	70.562	106.0070
1.644232	70.391	102.4262
1.656146	70.226	98.6006
1.668147	70.067	94.5321
1.680235	69.916	90.2304
1.692411	69.775	85.7148
1.704675	69.646	81.0142
1.717028	69.529	76.1675
1.729470	69.428	71.2218
1.742003	69.344	66.2296
1.754626	69.278	61.2448
1.767341	69.234	56.3192
1.780147	69.212	51.4978
1.793047	69.217	46.8170
1.806040	69.249	42.3023
1.819128	69.311	37.9694
1.832310	69.406	33.8255
1.845587	69.534	29.8727
1.858961	69.696	26.1107
1.872432	69.892	22.5388
1.886001	70.121	19.1557
1.899667	70.382	15.9591
1.913433	70.672	12.9446
1.927299	70.990	10.1062
1.941265	71.332	7.4362
1.955332	71.697	4.9257
1.969501	72.080	2.5651
1.983773	72.480	0.3440
1.998148	72.893	-1.7474
2.012627	73.316	-3.7195
2.027212	73.746	-5.5817
2.041902	74.180	-7.3434
2.056698	74.615	-9.0133
2.071602	75.046	-10.5997
2.086614	75.471	-12.1103
2.101734	75.887	-13.5524
2.116964	76.291	-14.9330
2.132304	76.680	-16.2589
2.147756	77.051	-17.5365
2.163320	77.404	-18.7726
2.178996	77.737	-19.9738
2.194786	78.052	-21.1467
2.210690	78.350	-22.2975
2.226710	78.634	-23.4310
2.242845	78.905	-24.5504
2.259098	79.166	-25.6573
2.275468	79.418	-26.7520
2.291957	79.661	-27.8337
2.308566	79.896	-28.9016
2.325295	80.124	-29.9546
2.342145	80.346	-30.9916
2.359117	80.561	-32.0116
2.376212	80.770	-33.0137
2.393431	80.974	-33.9971
2.410775	81.173	-34.9614
2.428244	81.368	-35.9060
2.445840	81.559	-36.8309
2.463564	81.746	-37.7361
2.481416	81.931	-38.6221
2.499397	82.112	-39.4897
2.517509	82.292	-40.3406
2.535752	82.469	-41.1774
2.554127	82.643	-42.0031
2.572635	82.814	-42.8219
2.591277	82.981	-43.6378
2.610055	83.143	-44.4536
2.628968	83.301	-45.2710
2.648019	83.453	-46.0903
2.667208	83.600	-46.9105
2.686535	83.742	-47.7303
2.706003	83.880	-48.5477
2.725612	84.013	-49.3607
2.745363	84.142	-50.1671
2.765257	84.266	-50.9645
2.785295	84.388	-51.7511
2.805478	84.506	-52.5248
2.825808	84.621	-53.2838
2.846285	84.734	-54.0270
2.866910	84.845	-54.7534
2.887685	84.953	-55.4631
2.908611	85.059	-56.1576
2.929688	85.162	-56.8390
2.950917	85.262	-57.5106
2.972301	85.359	-58.1754
2.993839	85.453	-58.8359
3.015534	85.542	-59.4932
3.037386	85.628	-60.1473
3.059396	85.711	-60.7975
3.081565	85.790	-61.4423
3.103896	85.866	-62.0801
3.126388	85.939	-62.7087
3.149043	86.009	-63.3260
3.171862	86.077	-63.9298
3.194847	86.143	-64.5179
3.217998	86.208	-65.0884
3.241317	86.271	-65.6400
3.264805	86.332	-66.1719
3.288463	86.391	-66.6844
3.312293	86.448	-67.1785
3.336295	86.504	-67.6561
3.360471	86.556	-68.1187
3.384822	86.606	-68.5676
3.409350	86.654	-69.0035
3.434056	86.699	-69.4266
3.458940	86.743	-69.8368
3.484005	86.785	-70.2335
3.509252	86.826	-70.6158
3.534681	86.866	-70.9829
3.560295	86.906	-71.3336
3.586094	86.946	-71.6669
3.612081	86.987	-71.9814
3.638255	87.027	-72.2763
3.664620	87.068	-72.5505
3.691175	87.109	-72.8038
3.717923	87.150	-73.0363
3.744864	87.191	-73.2485
3.772001	87.232	-73.4420
3.799335	87.273	-73.6182
3.826866	87.314	-73.7790
3.854597	87.356	-73.9264
3.882529	87.399	-74.0621
3.910664	87.444	-74.1881
3.939002	87.490	-74.3057
3.967546	87.539	-74.4157
3.996296	87.589	-74.5186
4.025255	87.643	-74.6138
4.054423	87.698	-74.7004
4.083804	87.757	-74.7780
4.113396	87.817	-74.8464
4.143204	87.880	-74.9071
4.173227	87.945	-74.9622
4.203468	88.013	-75.0145
4.233928	88.082	-75.0674
4.264609	88.153	-75.1241
4.295512	88.226	-75.1878
4.326639	88.301	-75.2609
4.357992	88.378	-75.3451
4.389572	88.456	-75.4411
4.421380	88.537	-75.5485
4.453419	88.620	-75.6666
4.485691	88.705	-75.7949
4.518196	88.792	-75.9336
4.550936	88.881	-76.0833
4.583914	88.970	-76.2452
4.617131	89.061	-76.4208
4.650589	89.151	-76.6116
4.684289	89.242	-76.8192
4.718233	89.332	-77.0449
4.752424	89.422	-77.2894
4.786862	89.512	-77.5530
4.821549	89.601	-77.8351
4.856488	89.690	-78.1351
4.891680	89.778	-78.4515
4.927127	89.865	-78.7831
4.962831	89.952	-79.1284
4.998794	90.037	-79.4865
5.035017	90.120	-79.8563
5.071503	90.202	-80.2375
5.108253	90.281	-80.6301
5.145270	90.358	-81.0344
5.182555	90.433	-81.4507
5.220110	90.506	-81.8783
5.257937	90.576	-82.3162
5.296038	90.645	-82.7623
5.334415	90.711	-83.2141
5.373071	90.775	-83.6694
5.412006	90.836	-84.1259
5.451224	90.896	-84.5820
5.490725	90.953	-85.0372
5.530514	91.007	-85.4915
5.570590	91.059	-85.9448
5.610957	91.109	-86.3970
5.651616	91.157	-86.8472
5.692570	91.203	-87.2938
5.733821	91.247	-87.7350
5.775370	91.290	-88.1689
5.817221	91.332	-88.5941
5.859375	91.373	-89.0093
5.901834	91.412	-89.4143
5.944602	91.451	-89.8094
5.987679	91.489	-90.1948
6.031068	91.526	-90.5712
6.074771	91.563	-90.9385
6.118792	91.600	-91.2969
6.163131	91.638	-91.6464
6.207792	91.676	-91.9866
6.252776	91.715	-92.3176
6.298086	91.756	-92.6395
6.343725	91.797	-92.9532
6.389694	91.839	-93.2604
6.435996	91.883	-93.5626
6.482634	91.928	-93.8618
6.529610	91.975	-94.1599
6.576926	92.023	-94.4578
6.624585	92.073	-94.7563
6.672590	92.125	-95.0562
6.720942	92.179	-95.3583
6.769645	92.235	-95.6639
6.818700	92.291	-95.9748
6.868111	92.350	-96.2928
6.917881	92.409	-96.6196
6.968010	92.469	-96.9561
7.018504	92.531	-97.3029
7.069362	92.593	-97.6600
7.120590	92.656	-98.0275
7.172189	92.719	-98.4054
7.224161	92.782	-98.7937
7.276511	92.845	-99.1927
7.329239	92.908	-99.6025
7.382350	92.970	-100.0230
7.435845	93.031	-100.4534
7.489729	93.092	-100.8928
7.544002	93.152	-101.3396
7.598669	93.210	-101.7925
7.653732	93.268	-102.2502
7.709194	93.324	-102.7118
7.765058	93.379	-103.1766
7.821327	93.432	-103.6436
7.878004	93.484	-104.1113
7.935091	93.535	-104.5783
7.992592	93.585	-105.0430
8.050510	93.634	-105.5039
8.108847	93.681	-105.9604
8.167607	93.728	-106.4119
8.226793	93.774	-106.8578
8.286408	93.820	-107.2977
8.346454	93.865	-107.7312
8.406936	93.911	-108.1576
8.467856	93.956	-108.5768
8.529218	94.002	-108.9891
8.591024	94.047	-109.3949
8.653278	94.094	-109.7949
8.715983	94.141	-110.1899
8.779143	94.189	-110.5807
8.842760	94.237	-110.9680
8.906839	94.287	-111.3523
8.971381	94.337	-111.7349
9.036392	94.388	-112.1166
9.101873	94.440	-112.4987
9.167829	94.492	-112.8821
9.234263	94.545	-113.2675
9.301178	94.599	-113.6553
9.368578	94.652	-114.0460
9.436467	94.706	-114.4398
9.504847	94.760	-114.8372
9.573723	94.813	-115.2380
9.643099	94.865	-115.6423
9.712976	94.916	-116.0496
9.783361	94.965	-116.4593
9.854255	95.011	-116.8707
9.925663	95.055	-117.2832
9.997588	95.095	-117.6963
10.070035	95.132	-118.1091
10.143007	95.166	-118.5209
10.216507	95.198	-118.9308
10.290540	95.228	-119.3380
10.365109	95.255	-119.7422
10.440219	95.281	-120.1429
10.515873	95.306	-120.5399
10.592076	95.330	-120.9330
10.668830	95.353	-121.3220
10.746141	95.376	-121.7073
10.824012	95.399	-122.0889
10.902447	95.421	-122.4675
10.981451	95.443	-122.8436
11.061027	95.466	-123.2178
11.141180	95.488	-123.5905
11.221913	95.510	-123.9624
11.303232	95.531	-124.3343
11.385140	95.553	-124.7066
11.467641	95.574	-125.0798
11.550741	95.595	-125.4542
11.634442	95.616	-125.8301
11.718750	95.637	-126.2076
11.803669	95.658	-126.5866
11.889203	95.678	-126.9670
11.975357	95.698	-127.3488
12.062136	95.717	-127.7313
12.149543	95.736	-128.1144
12.237583	95.755	-128.4979
12.326262	95.773	-128.8812
12.415583	95.790	-129.2643
12.505552	95.807	-129.6468
12.596172	95.823	-130.0287
12.687449	95.839	-130.4102
12.779387	95.854	-130.7913
12.871992	95.869	-131.1722
12.965268	95.883	-131.5534
13.059220	95.897	-131.9353
13.153852	95.912	-132.3184
13.249170	95.926	-132.7031
13.345179	95.940	-133.0898
13.441884	95.955	-133.4791
13.539289	95.969	-133.8711
13.637401	95.984	-134.2661
13.736223	95.998	-134.6639
13.835761	96.011	-135.0648
13.936021	96.025	-135.4683
14.037007	96.037	-135.8742
14.138725	96.049	-136.2822
14.241180	96.061	-136.6918
14.344377	96.072	-137.1028
14.448323	96.082	-137.5146
14.553021	96.093	-137.9272
14.658478	96.103	-138.3405
14.764700	96.112	-138.7542
14.871691	96.122	-139.1686
14.979457	96.132	-139.5839
15.088005	96.142	-140.0004
15.197339	96.153	-140.4185
15.307465	96.164	-140.8386
15.418389	96.175	-141.2610
15.530117	96.186	-141.6860
15.642655	96.197	-142.1138
15.756008	96.208	-142.5443
15.870182	96.219	-142.9775
15.985184	96.229	-143.4130
16.101019	96.240	-143.8504
16.217694	96.250	-144.2892
16.335214	96.260	-144.7288
16.453586	96.269	-145.1685
16.572815	96.279	-145.6077
16.692909	96.288	-146.0461
16.813872	96.298	-146.4831
16.935713	96.308	-146.9186
17.058436	96.319	-147.3525
17.182048	96.329	-147.7849
17.306556	96.340	-148.2157
17.431967	96.351	-148.6454
17.558286	96.363	-149.0740
17.685521	96.374	-149.5020
17.813677	96.385	-149.9292
17.942762	96.397	-150.3560
18.072783	96.408	-150.7820
18.203746	96.418	-151.2074
18.335658	96.429	-151.6318
18.468526	96.439	-152.0550
18.602356	96.449	-152.4767
18.737156	96.459	-152.8968
18.872934	96.469	-153.3149
19.009695	96.479	-153.7313
19.147447	96.488	-154.1456
19.286197	96.498	-154.5582
19.425953	96.507	-154.9691
19.566721	96.516	-155.3784
19.708510	96.524	-155.7866
19.851326	96.532	-156.1935
19.995177	96.539	-156.5996
20.140070	96.546	-157.0048
20.286013	96.553	-157.4091
20.433014	96.559	-157.8126
20.581080	96.564	-158.2155
20.730219	96.569	-158.6178
20.880439	96.573	-159.0197
21.031747	96.577	-159.4213
21.184152	96.581	-159.8230
21.337661	96.585	-160.2251
21.492282	96.588	-160.6279
21.648024	96.591	-161.0316
21.804895	96.594	-161.4363
21.962902	96.597	-161.8423
22.122054	96.599	-162.2496
22.282360	96.600	-162.6580
22.443827	96.602	-163.0674
22.606464	96.602	-163.4779
22.770280	96.603	-163.8894
22.935283	96.603	-164.3021
23.101481	96.603	-164.7159
23.268884	96.603	-165.1313
23.437500	96.602	-165.5485
23.607338	96.601	-165.9675
23.778406	96.600	-166.3886
23.950714	96.599	-166.8118
24.124271	96.597	-167.2368
24.299086	96.595	-167.6635
24.475167	96.592	-168.0911
24.652524	96.589	-168.5193
24.831166	96.586	-168.9477
25.011103	96.583	-169.3757
25.192344	96.580	-169.8030
25.374898	96.576	-170.2295
25.558775	96.573	-170.6550
25.743984	96.569	-171.0795
25.930536	96.566	-171.5031
26.118439	96.562	-171.9255
26.307704	96.558	-172.3467
26.498341	96.555	-172.7666
26.690359	96.550	-173.1849
26.883768	96.546	-173.6014
27.078579	96.542	-174.0162
27.274801	96.537	-174.4290
27.472446	96.532	-174.8398
27.671522	96.527	-175.2489
27.872042	96.522	-175.6564
28.074014	96.516	-176.0623
28.277450	96.510	-176.4670
28.482360	96.503	-176.8707
28.688755	96.496	-177.2734
28.896645	96.489	-177.6755
29.106042	96.482	-178.0772
29.316957	96.474	-178.4787
29.529400	96.465	-178.8803
29.743382	96.457	-179.2823
29.958915	96.448	-179.6849
30.176009	96.439	179.9118
30.394677	96.430	179.5079
30.614929	96.420	179.1034
30.836778	96.410	178.6984
31.060234	96.400	178.2928
31.285309	96.389	177.8867
31.512015	96.379	177.4799
31.740364	96.368	177.0720
31.970368	96.357	176.6629
32.202039	96.346	176.2523
32.435388	96.335	175.8400
32.670428	96.324	175.4259
32.907171	96.313	175.0103
33.145630	96.301	174.5934
33.385817	96.289	174.1757
33.627745	96.278	173.7575
33.871425	96.265	173.3395
34.116871	96.253	172.9222
34.364096	96.240	172.5059
34.613113	96.228	172.0909
34.863934	96.215	171.6775
35.116572	96.202	171.2654
35.371041	96.189	170.8546
35.627354	96.175	170.4449
35.885525	96.161	170.0363
36.145566	96.147	169.6287
36.407492	96.133	169.2224
36.671316	96.118	168.8175
36.937051	96.103	168.4144
37.204712	96.087	168.0132
37.474313	96.071	167.6137
37.745867	96.055	167.2157
38.019389	96.038	166.8188
38.294893	96.021	166.4226
38.572394	96.004	166.0268
38.851905	95.987	165.6312
39.133442	95.970	165.2356
39.417019	95.952	164.8401
39.702651	95.934	164.4446
39.990353	95.915	164.0494
40.280140	95.897	163.6544
40.572026	95.878	163.2598
40.866028	95.859	162.8657
41.162160	95.840	162.4720
41.460438	95.821	162.0789
41.760877	95.802	161.6863
42.063494	95.782	161.2941
42.368303	95.762	160.9023
42.675322	95.743	160.5109
42.984565	95.722	160.1201
43.296048	95.702	159.7301
43.609789	95.681	159.3409
43.925804	95.660	158.9528
44.244108	95.639	158.5657
44.564719	95.617	158.1793
44.887654	95.595	157.7938
45.212928	95.573	157.4088
45.540560	95.551	157.0241
45.870565	95.529	156.6396
46.202962	95.506	156.2552
46.537768	95.483	155.8708
46.875000	95.461	155.4863
47.214676	95.438	155.1019
47.556813	95.414	154.7180
47.901429	95.391	154.3348
48.248542	95.368	153.9530
48.598171	95.344	153.5728
48.950334	95.321	153.1943
49.305048	95.298	152.8177
49.662333	95.275	152.4427
50.022206	95.251	152.0691
50.384688	95.228	151.6968
50.749796	95.204	151.3259
51.117550	95.181	150.9567
51.487969	95.157	150.5893
51.861072	95.132	150.2241
52.236879	95.108	149.8614
52.615409	95.083	149.5010
52.996681	95.059	149.1428
53.380717	95.034	148.7861
53.767536	95.009	148.4302
54.157158	94.984	148.0740
54.549603	94.960	147.7168
54.944892	94.935	147.3580
55.343045	94.911	146.9970
55.744084	94.887	146.6336
56.148028	94.863	146.2675
56.554900	94.839	145.8982
56.964720	94.815	145.5252
57.377510	94.792	145.1475
57.793291	94.768	144.7640
58.212085	94.745	144.3741
58.633914	94.722	143.9781
59.058799	94.697	143.5779
59.486764	94.671	143.1760
59.917829	94.644	142.7757
60.352019	94.616	142.3796
60.789354	94.587	141.9901
61.229859	94.558	141.6086
61.673556	94.528	141.2354
62.120468	94.497	140.8698
62.570618	94.467	140.5106
63.024031	94.437	140.1577
63.480729	94.406	139.8122
63.940736	94.375	139.4755
64.404077	94.345	139.1461
64.870776	94.317	138.8181
65.340856	94.290	138.4835
65.814343	94.262	138.1372
66.291261	94.234	137.7805
66.771635	94.204	137.4202
67.255489	94.172	137.0637
67.742850	94.140	136.7144
68.233743	94.107	136.3710
68.728193	94.075	136.0299
69.226226	94.044	135.6884
69.727867	94.013	135.3448
70.233144	93.983	134.9989
70.742083	93.952	134.6504
71.254709	93.922	134.3003
71.771050	93.891	133.9501
72.291132	93.860	133.6014
72.814984	93.829	133.2555
73.342631	93.797	132.9124
73.874102	93.766	132.5721
74.409424	93.735	132.2343
74.948626	93.705	131.8984
75.491734	93.674	131.5637
76.038779	93.644	131.2291
76.589787	93.614	130.8936
77.144788	93.584	130.5563
77.703811	93.554	130.2164
78.266885	93.524	129.8737
78.834039	93.495	129.5271
79.405303	93.465	129.1758
79.980706	93.436	128.8191
80.560280	93.407	128.4559
81.144053	93.377	128.0861
81.732056	93.346	127.7101
82.324320	93.315	127.3289
82.920876	93.282	126.9444
83.521755	93.248	126.5590
84.126988	93.213	126.1752
84.736607	93.176	125.7957
85.350643	93.139	125.4226
85.969129	93.100	125.0577
86.592097	93.061	124.7021
87.219579	93.022	124.3558
87.851608	92.983	124.0181
88.488217	92.945	123.6874
89.129439	92.907	123.3619
89.775308	92.870	123.0401
90.425856	92.833	122.7206
91.081119	92.797	122.4023
91.741131	92.761	122.0846
92.405925	92.725	121.7675
93.075536	92.689	121.4512
93.750000	92.654	121.1355
94.429351	92.619	120.8201
95.113625	92.584	120.5046
95.802858	92.550	120.1887
96.497085	92.515	119.8720
97.196342	92.480	119.5551
97.900667	92.445	119.2386
98.610096	92.410	118.9240
99.324665	92.374	118.6126
100.044413	92.338	118.3057
100.769376	92.302	118.0037
101.499592	92.267	117.7064
102.235100	92.232	117.4124
102.975938	92.197	117.1201
103.722144	92.164	116.8275
104.473757	92.130	116.5333
105.230817	92.098	116.2361
105.993363	92.065	115.9348
106.761435	92.033	115.6284
107.535072	92.001	115.3167
108.314315	91.968	114.9993
109.099206	91.935	114.6765
109.889783	91.902	114.3484
110.686090	91.869	114.0150
111.488167	91.834	113.6766
112.296056	91.799	113.3344
113.109800	91.763	112.9910
113.929440	91.724	112.6503
114.755020	91.684	112.3173
115.586582	91.642	111.9968
116.424170	91.599	111.6930
117.267827	91.555	111.4073
118.117598	91.512	111.1383
118.973527	91.471	110.8818
119.835658	91.431	110.6314
120.704037	91.394	110.3806
121.578708	91.359	110.1247
122.459718	91.326	109.8621
123.347111	91.293	109.5929
124.240935	91.262	109.3184
125.141236	91.230	109.0397
126.048061	91.199	108.7583
126.961458	91.168	108.4750
127.881473	91.136	108.1904
128.808154	91.104	107.9046
129.741551	91.072	107.6173
130.681712	91.039	107.3278
131.628686	91.007	107.0354
132.582521	90.974	106.7404
133.543269	90.941	106.4434
134.510979	90.907	106.1456
135.485701	90.874	105.8485
136.467486	90.840	105.5531
137.456386	90.805	105.2603
138.452451	90.771	104.9702
139.455735	90.736	104.6828
140.466288	90.702	104.3972
141.484165	90.668	104.1127
142.509418	90.634	103.8287
143.542100	90.599	103.5449
144.582265	90.565	103.2607
145.629968	90.531	102.9758
146.685262	90.497	102.6906
147.748204	90.462	102.4059
148.818849	90.427	102.1229
149.897251	90.391	101.8430
150.983469	90.354	101.5688
152.077557	90.317	101.3030
153.179574	90.279	101.0474
154.289576	90.242	100.8022
155.407622	90.205	100.5651
156.533770	90.171	100.3314
157.668078	90.138	100.0958
158.810606	90.106	99.8537
159.961413	90.075	99.6028
161.120559	90.044	99.3430
162.288105	90.013	99.0753
163.464112	89.981	98.8018
164.648640	89.948	98.5244
165.841752	89.914	98.2458
167.043510	89.879	97.9693
168.253976	89.843	97.6981
169.473213	89.807	97.4350
170.701286	89.770	97.1810
171.938258	89.735	96.9354
173.184194	89.701	96.6959
174.439158	89.668	96.4601
175.703216	89.636	96.2256
176.976434	89.605	95.9910
178.258878	89.575	95.7551
179.550615	89.545	95.5172
180.851713	89.515	95.2769
182.162239	89.485	95.0341
183.482262	89.456	94.7892
184.811850	89.426	94.5426
186.151073	89.396	94.2958
187.500000	89.366	94.0499
188.858702	89.336	93.8054
190.227250	89.306	93.5620
191.605715	89.276	93.3187
192.994169	89.246	93.0758
194.392685	89.216	92.8350
195.801334	89.186	92.5991
197.220191	89.156	92.3717
198.649330	89.126	92.1556
200.088825	89.097	91.9531
201.538751	89.068	91.7639
202.999184	89.041	91.5842
204.470200	89.015	91.4077
205.951875	88.990	91.2269
207.444287	88.966	91.0383
208.947514	88.942	90.8439
210.461634	88.917	90.6495
211.986726	88.893	90.4617
213.522869	88.868	90.2865
215.070144	88.843	90.1284
216.628631	88.820	89.9893
218.198411	88.800	89.8673
219.779567	88.784	89.7557
221.372180	88.772	89.6442
222.976334	88.766	89.5211
224.592112	88.763	89.3772
226.219600	88.763	89.2061
227.858880	88.765	89.0040
229.510039	88.767	88.7695
231.173164	88.769	88.5027
232.848340	88.769	88.2065
234.535655	88.765	87.8854
236.235197	88.759	87.5454
237.947054	88.749	87.1935
239.671317	88.734	86.8367
241.408074	88.716	86.4812
243.157416	88.694	86.1323
244.919435	88.669	85.7949
246.694223	88.641	85.4732
248.481871	88.612	85.1713
250.282473	88.582	84.8923
252.096123	88.553	84.6375
253.922915	88.525	84.4053
255.762945	88.500	84.1899
257.616309	88.478	83.9819
259.483103	88.459	83.7712
261.363424	88.441	83.5516
263.257372	88.422	83.3232
265.165043	88.403	83.0914
267.086538	88.382	82.8631
269.021957	88.360	82.6437
270.971401	88.338	82.4360
272.934972	88.317	82.2402
274.912771	88.297	82.0540
276.904902	88.279	81.8748
278.911469	88.262	81.7003
280.932577	88.248	81.5287
282.968330	88.236	81.3571
285.018835	88.226	81.1802
287.084199	88.219	80.9908
289.164530	88.212	80.7828
291.259935	88.205	80.5546
293.370525	88.196	80.3114
295.496408	88.184	80.0627
297.637697	88.170	79.8176
299.794503	88.154	79.5817
301.966937	88.137	79.3571
304.155114	88.120	79.1428
306.359147	88.104	78.9362
308.579152	88.087	78.7340
310.815244	88.071	78.5333
313.067539	88.055	78.3327
315.336156	88.039	78.1334
317.621211	88.022	77.9393
319.922826	88.005	77.7546
322.241118	87.988	77.5814
324.576210	87.972	77.4191
326.928223	87.958	77.2645
329.297280	87.945	77.1143
331.683504	87.933	76.9651
334.087019	87.922	76.8138
336.507952	87.911	76.6581
338.946427	87.901	76.4966
341.402572	87.891	76.3304
343.876516	87.880	76.1624
346.368387	87.868	75.9965
348.878315	87.856	75.8350
351.406431	87.845	75.6791
353.952867	87.833	75.5283
356.517756	87.822	75.3811
359.101230	87.811	75.2358
361.703426	87.800	75.0911
364.324478	87.790	74.9466
366.964523	87.780	74.8024
369.623699	87.770	74.6588
372.302145	87.761	74.5164
375.000000	87.752	74.3753
377.717405	87.744	74.2359
380.454501	87.736	74.0980
383.211431	87.728	73.9615
385.988339	87.720	73.8267
388.785369	87.712	73.6935
391.602668	87.705	73.5623
394.440383	87.697	73.4329
397.298660	87.689	73.3055
400.177650	87.682	73.1796
403.077502	87.674	73.0544
405.998368	87.667	72.9296
408.940400	87.659	72.8056
411.903750	87.651	72.6847
414.888575	87.642	72.5701
417.895028	87.631	72.4655
420.923268	87.621	72.3733
423.973452	87.611	72.2950
427.045738	87.602	72.2303
430.140287	87.594	72.1769
433.257261	87.588	72.1316
436.396822	87.583	72.0927
439.559133	87.580	72.0607
442.744360	87.579	72.0366
445.952668	87.581	72.0186
449.184225	87.585	72.0009
452.439199	87.593	71.9752
455.717760	87.603	71.9349
459.020079	87.613	71.8784
462.346327	87.623	71.8104
465.696680	87.633	71.7371
469.071310	87.643	71.6613
472.470394	87.654	71.5823
475.894109	87.665	71.4969
479.342634	87.676	71.4011
482.816148	87.687	71.2920
486.314833	87.697	71.1706
489.838871	87.704	71.0440
493.388445	87.709	70.9222
496.963741	87.713	70.8116
500.564945	87.717	70.7107
504.192245	87.722	70.6138
507.845830	87.727	70.5156
511.525890	87.732	70.4141
515.232618	87.737	70.3104
518.966206	87.740	70.2079
522.726849	87.742	70.1109
526.514743	87.743	70.0242
530.330086	87.745	69.9501
534.173076	87.747	69.8870
538.043915	87.750	69.8298
541.942803	87.754	69.7755
545.869944	87.758	69.7242
549.825542	87.763	69.6764
553.809805	87.769	69.6307
557.822939	87.775	69.5842
561.865154	87.782	69.5349
565.936660	87.789	69.4826
570.037671	87.795	69.4299
574.168399	87.800	69.3799
578.329060	87.805	69.3349
582.519870	87.809	69.2955
586.741049	87.814	69.2617
590.992817	87.818	69.2354
595.275394	87.822	69.2188
599.589005	87.828	69.2109
603.933874	87.834	69.2078
608.310228	87.842	69.2057
612.718295	87.849	69.2033
617.158304	87.856	69.2031
621.630488	87.863	69.2105
626.135079	87.870	69.2316
630.672311	87.877	69.2680
635.242423	87.887	69.3160
639.845651	87.898	69.3698
644.482237	87.911	69.4274
649.152421	87.927	69.4894
653.856447	87.944	69.5543
658.594560	87.964	69.6154
663.367008	87.986	69.6624
668.174039	88.010	69.6877
673.015903	88.032	69.6916
677.892854	88.053	69.6818
682.805145	88.071	69.6671
687.753032	88.088	69.6544
692.736774	88.102	69.6492
697.756631	88.116	69.6556
702.812863	88.129	69.6752
707.905735	88.143	69.7061
713.035511	88.157	69.7440
718.202461	88.173	69.7858
723.406852	88.189	69.8310
728.648956	88.205	69.8805
733.929047	88.221	69.9354
739.247399	88.238	69.9962
744.604290	88.255	70.0630
750.000000	88.273	70.1361
755.434809	88.291	70.2153
760.909001	88.309	70.3002
766.422861	88.329	70.3906
771.976677	88.349	70.4857
777.570739	88.369	70.5848
783.205337	88.391	70.6877
788.880766	88.414	70.7954
794.597321	88.437	70.9106
800.355301	88.463	71.0353
806.155005	88.491	71.1684
811.996736	88.522	71.3041
817.880799	88.556	71.4343
823.807501	88.593	71.5496
829.777150	88.632	71.6418
835.790057	88.671	71.7089
841.846536	88.709	71.7573
847.946903	88.743	71.7974
854.091476	88.776	71.8372
860.280575	88.808	71.8808
866.514523	88.838	71.9315
872.793644	88.868	71.9926
879.118267	88.898	72.0641
885.488720	88.929	72.1423
891.905336	88.961	72.2233
898.368450	88.994	72.3068
904.878398	89.027	72.3946
911.435520	89.061	72.4871
918.040157	89.097	72.5825
924.692655	89.134	72.6780
931.393359	89.173	72.7707
938.142619	89.214	72.8574
944.940787	89.255	72.9367
951.788218	89.296	73.0097
958.685268	89.338	73.0786
965.632296	89.380	73.1455
972.629666	89.423	73.2128
979.677741	89.466	73.2816
986.776890	89.509	73.3516
993.927482	89.553	73.4242
1001.129891	89.597	73.5034
1008.384491	89.642	73.5927
1015.691660	89.689	73.6912
1023.051781	89.740	73.7941
1030.465236	89.794	73.8936
1037.932411	89.852	73.9785
1045.453698	89.913	74.0369
1053.029486	89.974	74.0635
1060.660172	90.035	74.0623
1068.346153	90.093	74.0414
1076.087829	90.150	74.0100
1083.885605	90.204	73.9739
1091.739887	90.258	73.9346
1099.651084	90.310	73.8924
1107.619609	90.362	73.8479
1115.645878	90.413	73.8027
1123.730308	90.463	73.7585
1131.873321	90.512	73.7169
1140.075341	90.561	73.6787
1148.336797	90.610	73.6445
1156.658119	90.659	73.6144
1165.039741	90.708	73.5896
1173.482099	90.758	73.5713
1181.985634	90.810	73.5591
1190.550789	90.865	73.5474
1199.178011	90.922	73.5251
1207.867749	90.983	73.4810
1216.620457	91.043	73.4093
1225.436590	91.102	73.3135
1234.316609	91.159	73.2019
1243.260976	91.212	73.0830
1252.270157	91.263	72.9644
1261.344623	91.312	72.8502
1270.484846	91.359	72.7420
1279.691303	91.405	72.6413
1288.964474	91.450	72.5496
1298.304842	91.495	72.4667
1307.712894	91.541	72.3903
1317.189120	91.587	72.3168
1326.734016	91.633	72.2435
1336.348077	91.679	72.1708
1346.031806	91.726	72.1014
1355.785708	91.773	72.0388
1365.610290	91.821	71.9869
1375.506065	91.871	71.9501
1385.473549	91.923	71.9333
1395.513261	91.978	71.9380
1405.625726	92.037	71.9588
1415.811469	92.101	71.9841
1426.071023	92.169	71.9993
1436.404921	92.239	71.9945
1446.813703	92.310	71.9688
1457.297912	92.380	71.9270
1467.858093	92.448	71.8751
1478.494798	92.515	71.8178
1489.208581	92.579	71.7587
1500.000000	92.641	71.7010
1510.869618	92.699	71.6481
1521.818002	92.753	71.6025
1532.845723	92.804	71.5663
1543.953355	92.852	71.5411
1555.141477	92.899	71.5269
1566.410674	92.946	71.5195
1577.761531	92.996	71.5085
1589.194642	93.048	71.4800
1600.710601	93.102	71.4248
1612.310010	93.155	71.3419
1623.993473	93.207	71.2361
1635.761599	93.258	71.1147
1647.615002	93.307	70.9835
1659.554299	93.355	70.8474
1671.580114	93.402	70.7097
1683.693072	93.448	70.5713
1695.893807	93.495	70.4302
1708.182952	93.541	70.2843
1720.561150	93.586	70.1336
1733.029045	93.629	69.9811
1745.587288	93.669	69.8320
1758.236533	93.708	69.6926
1770.977440	93.747	69.5682
1783.810673	93.787	69.4578
1796.736900	93.831	69.3527
1809.756796	93.878	69.2389
1822.871040	93.928	69.1055
1836.080315	93.979	68.9484
1849.385310	94.031	68.7689
1862.786718	94.082	68.5699
1876.285239	94.134	68.3561
1889.881575	94.186	68.1326
1903.576436	94.240	67.9052
1917.370535	94.296	67.6793
1931.264593	94.357	67.4579
1945.259332	94.423	67.2400
1959.355483	94.496	67.0168
1973.553781	94.573	66.7750
1987.854965	94.654	66.5041
2002.259781	94.736	66.2002
2016.768981	94.817	65.8651
2031.383320	94.897	65.5033
2046.103561	94.974	65.1199
2060.930471	95.049	64.7192
2075.864823	95.122	64.3034
2090.907395	95.192	63.8732
2106.058972	95.259	63.4308
2121.320344	95.321	62.9813
2136.692305	95.380	62.5323
2152.175658	95.435	62.0916
2167.771210	95.489	61.6617
2183.479774	95.543	61.2362
2199.302169	95.597	60.8040
2215.239219	95.651	60.3555
2231.291755	95.704	59.8864
2247.460615	95.755	59.3963
2263.746641	95.803	58.8889
2280.150683	95.848	58.3704
2296.673595	95.890	57.8487
2313.316238	95.929	57.3308
2330.079481	95.969	56.8185
2346.964198	96.008	56.3054
2363.971268	96.049	55.7804
2381.101578	96.089	55.2341
2398.356022	96.128	54.6622
2415.735498	96.164	54.0652
2433.240913	96.197	53.4465
2450.873180	96.225	52.8099
2468.633217	96.249	52.1587
2486.521951	96.268	51.4969
2504.540314	96.282	50.8312
2522.689246	96.290	50.1718
2540.969692	96.294	49.5291
2559.382606	96.295	48.9069
2577.928947	96.294	48.3013
2596.609683	96.293	47.7045
2615.425787	96.290	47.1103
2634.378241	96.284	46.5164
2653.468031	96.276	45.9251
2672.696154	96.264	45.3430
2692.063613	96.249	44.7788
2711.571415	96.232	44.2384
2731.220579	96.215	43.7201
2751.012130	96.199	43.2153
2770.947098	96.184	42.7145
2791.026522	96.168	42.2110
2811.251451	96.152	41.7020
2831.622938	96.135	41.1873
2852.142045	96.115	40.6678
2872.809842	96.091	40.1466
2893.627406	96.064	39.6301
2914.595823	96.033	39.1286
2935.716186	96.000	38.6517
2956.989596	95.964	38.2023
2978.417161	95.929	37.7766
3000.000000	95.893	37.3683
3021.739237	95.857	36.9731
3043.636005	95.821	36.5907
3065.691446	95.783	36.2261
3087.906710	95.745	35.8870
3110.282955	95.708	35.5766
3132.821347	95.673	35.2908
3155.523062	95.641	35.0203
3178.389283	95.612	34.7551
3201.421202	95.586	34.4873
3224.620020	95.562	34.2115
3247.986946	95.538	33.9243
3271.523198	95.514	33.6265
3295.230004	95.488	33.3249
3319.108599	95.461	33.0289
3343.160228	95.433	32.7441
3367.386145	95.407	32.4700
3391.787613	95.381	32.2019
3416.365904	95.356	31.9359
3441.122300	95.332	31.6730
3466.058091	95.308	31.4197
3491.174576	95.286	31.1827
3516.473066	95.265	30.9628
3541.954880	95.248	30.7541
3567.621345	95.235	30.5467
3593.473800	95.225	30.3304
3619.513592	95.218	30.0958
3645.742080	95.213	29.8360
3672.160630	95.207	29.5509
3698.770620	95.199	29.2472
3725.573436	95.190	28.9321
3752.570477	95.180	28.6086
3779.763150	95.168	28.2751
3807.152872	95.154	27.9297
3834.741071	95.137	27.5750
3862.529185	95.117	27.2183
3890.518664	95.094	26.8672
3918.710966	95.069	26.5228
3947.107561	95.045	26.1793
3975.709929	95.022	25.8264
4004.519563	95.000	25.4528
4033.537962	94.978	25.0485
4062.766641	94.954	24.6107
4092.207123	94.927	24.1436
4121.860942	94.895	23.6539
4151.729646	94.859	23.1459
4181.814790	94.818	22.6212
4212.117944	94.770	22.0833
4242.640687	94.716	21.5416
4273.384610	94.654	21.0089
4304.351317	94.586	20.4949
4335.542421	94.513	20.0024
4366.959549	94.436	19.5280
4398.604338	94.356	19.0638
4430.478438	94.273	18.6019
4462.583511	94.185	18.1402
4494.921231	94.091	17.6827
4527.493283	93.992	17.2352
4560.301365	93.888	16.8013
4593.347189	93.776	16.3851
4626.632476	93.658	15.9956
4660.158962	93.532	15.6474
4693.928395	93.400	15.3547
4727.942535	93.265	15.1255
4762.203156	93.128	14.9602
4796.712043	92.991	14.8510
4831.470996	92.856	14.7874
4866.481826	92.722	14.7628
4901.746360	92.590	14.7735
4937.266434	92.460	14.8149
4973.043902	92.330	14.8818
5009.080628	92.201	14.9729
5045.378492	92.070	15.0948
5081.939384	91.937	15.2579
5118.765212	91.804	15.4704
5155.857894	91.673	15.7350
5193.219366	91.544	16.0464
5230.851574	91.418	16.3967
5268.756481	91.295	16.7801
5306.936062	91.175	17.1926
5345.392309	91.058	17.6292
5384.127225	90.942	18.0853
5423.142830	90.827	18.5629
5462.441159	90.710	19.0709
5502.024259	90.594	19.6209
5541.894195	90.478	20.2206
5582.053045	90.365	20.8702
5622.502902	90.257	21.5641
5663.245876	90.155	22.2963
5704.284090	90.058	23.0599
5745.619684	89.968	23.8466
5787.254813	89.885	24.6490
5829.191647	89.806	25.4662
5871.432373	89.732	26.3039
5913.979192	89.662	27.1701
5956.834323	89.598	28.0699
6000.000000	89.541	29.0021
6043.478473	89.493	29.9617
6087.272010	89.453	30.9423
6131.382892	89.423	31.9350
6175.813420	89.401	32.9308
6220.565910	89.388	33.9258
6265.642695	89.383	34.9228
6311.046124	89.384	35.9291
6356.778566	89.393	36.9509
6402.842404	89.411	37.9900
6449.240040	89.440	39.0445
6495.973891	89.480	40.1089
6543.046396	89.532	41.1741
6590.460007	89.597	42.2305
6638.217197	89.675	43.2725
6686.320456	89.766	44.2992
6734.772290	89.869	45.3112
6783.575226	89.987	46.3065
6832.731809	90.121	47.2795
6882.244600	90.270	48.2204
6932.116181	90.437	49.1139
6982.349153	90.619	49.9427
7032.946133	90.819	50.6922
7083.909760	91.036	51.3503
7135.242690	91.272	51.9055
7186.947600	91.527	52.3425
7239.027185	91.803	52.6414
7291.484160	92.100	52.7747
7344.321260	92.417	52.7077
7397.541239	92.753	52.4034
7451.146872	93.104	51.8272
7505.140954	93.466	50.9483
7559.526299	93.835	49.7370
7614.305743	94.203	48.1651
7669.482141	94.566	46.2059
7725.058371	94.913	43.8360
7781.037328	95.233	41.0417
7837.421932	95.514	37.8284
7894.215122	95.742	34.2266
7951.419859	95.905	30.2920
8009.039125	95.995	26.1030
8067.075924	96.003	21.7559
8125.533282	95.927	17.3560
8184.414245	95.766	13.0111
8243.721885	95.523	8.8266
8303.459292	95.203	4.9012
8363.629581	94.815	1.3208
8424.235888	94.368	-1.8469
8485.281374	93.875	-4.5569
8546.769221	93.352	-6.7925
8608.702634	92.810	-8.5615
8671.084842	92.263	-9.8888
8733.919097	91.719	-10.8080
8797.208675	91.186	-11.3553
8860.956876	90.671	-11.5671
8925.167022	90.180	-11.4832
8989.842461	89.716	-11.1485
9054.986566	89.282	-10.6086
9120.602731	88.879	-9.9047
9186.694378	88.506	-9.0679
9253.264952	88.163	-8.1197
9320.317925	87.850	-7.0771
9387.856790	87.567	-5.9604
9455.885071	87.314	-4.7935
9524.406312	87.092	-3.5997
9593.424086	86.898	-2.3969
9662.941992	86.731	-1.1951
9732.963653	86.592	-0.0021
9803.492719	86.480	1.1688
9874.532869	86.396	2.2985
9946.087805	86.336	3.3663
10018.161257	86.300	4.3564
10090.756983	86.284	5.2598
10163.878768	86.288	6.0679
10237.530423	86.311	6.7667
10311.715789	86.349	7.3378
10386.438732	86.401	7.7640
10461.703149	86.462	8.0355
10537.512962	86.529	8.1489
10613.872125	86.598	8.1014
10690.784618	86.666	7.8898
10768.254450	86.727	7.5149
10846.285661	86.774	6.9910
10924.882318	86.804	6.3478
11004.048518	86.813	5.6270
11083.788390	86.798	4.8768
11164.106090	86.762	4.1497
11245.005805	86.707	3.5009
11326.491752	86.643	2.9787
11408.568180	86.581	2.6056
11491.239368	86.536	2.3583
11574.509626	86.520	2.1612
11658.383294	86.538	1.9025
11742.864745	86.586	1.4648
11827.958384	86.652	0.7563
11913.668646	86.717	-0.2685
12000.000000	86.764	-1.6016
12086.956947	86.775	-3.1845
12174.544019	86.739	-4.9241
12262.765784	86.652	-6.7143
12351.626840	86.516	-8.4567
12441.131819	86.335	-10.0699
12531.285389	86.119	-11.4911
12622.092249	85.877	-12.6757
12713.557132	85.620	-13.5996
12805.684808	85.358	-14.2612
12898.480079	85.102	-14.6748
12991.947783	84.860	-14.8635
13086.092792	84.640	-14.8557
13180.920015	84.447	-14.6877
13276.434395	84.287	-14.4024
13372.640911	84.163	-14.0433
13469.544580	84.077	-13.6518
13567.150452	84.033	-13.2711
13665.463617	84.031	-12.9491
13764.489200	84.072	-12.7362
13864.232362	84.156	-12.6821
13964.698305	84.284	-12.8397
14065.892266	84.454	-13.2697
14167.819519	84.662	-14.0367
14270.485380	84.903	-15.2043
14373.895200	85.168	-16.8311
14478.054370	85.444	-18.9680
14582.968320	85.715	-21.6484
14688.642520	85.963	-24.8787
14795.082478	86.171	-28.6344
14902.293745	86.319	-32.8603
15010.281908	86.393	-37.4700
15119.052599	86.382	-42.3490
15228.611486	86.280	-47.3665
15338.964283	86.088	-52.3884
15450.116741	85.814	-57.2879
15562.074656	85.468	-61.9553
15674.843864	85.067	-66.3087
15788.430244	84.630	-70.3035
15902.839718	84.180	-73.9375
16018.078250	83.739	-77.2543
16134.151848	83.328	-80.3434
16251.066563	82.965	-83.3358
16368.828491	82.657	-86.3875
16487.443769	82.403	-89.6592
16606.918584	82.192	-93.2959
16727.259161	82.000	-97.4049
16848.471777	81.798	-102.0385
16970.562748	81.554	-107.1866
17093.538442	81.236	-112.7768
17217.405268	80.817	-118.6782
17342.169684	80.277	-124.7161
17467.838194	79.606	-130.6936
17594.417350	78.802	-136.4124
17721.913751	77.871	-141.6912
17850.334044	76.825	-146.3795
17979.684923	75.681	-150.3628
18109.973131	74.459	-153.5612
18241.205462	73.181	-155.9307
18373.388756	71.872	-157.4706
18506.529905	70.556	-158.2321
18640.635849	69.257	-158.3245
18775.713581	67.997	-157.9061
18911.770141	66.788	-157.1495
19048.812624	65.633	-156.1968
19186.848172	64.528	-155.1335
19325.883983	63.469	-153.9927
19465.927305	62.464	-152.7800
19606.985439	61.539	-151.5164
19749.065738	60.749	-150.2804
19892.175609	60.163	-149.2380
20036.322514	59.851	-148.6223
